,ECG,Lead,Config,PCC,RMSE,MAE,DTW
0,0,I,0,0.75,0.281,0.247,0.079
1,0,I,1,0.969,0.055,0.04,0.003
2,0,I,2,0.81,0.153,0.122,0.024
3,0,I,3,0.907,0.139,0.116,0.019
4,0,I,4,0.905,0.173,0.143,0.03
5,0,I,5,0.919,0.214,0.191,0.046
6,0,I,6,0.859,0.145,0.105,0.021
7,0,I,7,0.951,0.136,0.109,0.019
8,0,I,8,0.827,0.16,0.121,0.026
9,0,I,9,0.299,0.412,0.345,0.17
10,0,I,10,0.759,0.191,0.139,0.037
11,0,I,11,0.796,0.196,0.156,0.038
12,0,I,12,0.851,0.169,0.147,0.028
13,0,I,13,0.871,0.159,0.114,0.025
14,0,I,14,0.563,0.248,0.194,0.061
15,0,I,15,0.931,0.097,0.073,0.009
16,0,I,16,0.58,0.361,0.347,0.13
17,0,II,0,0.417,0.347,0.289,0.121
18,0,II,1,0.96,0.067,0.05,0.004
19,0,II,2,0.857,0.146,0.117,0.021
20,0,II,3,0.949,0.108,0.088,0.012
21,0,II,4,0.54,0.411,0.352,0.169
22,0,II,5,0.953,0.169,0.152,0.028
23,0,II,6,0.944,0.072,0.048,0.005
24,0,II,7,0.727,0.348,0.291,0.121
25,0,II,8,0.934,0.123,0.082,0.015
26,0,II,9,0.412,0.258,0.198,0.067
27,0,II,10,0.733,0.223,0.164,0.05
28,0,II,11,0.078,0.337,0.247,0.114
29,0,II,12,0.804,0.148,0.117,0.022
30,0,II,13,0.891,0.121,0.088,0.015
31,0,II,14,0.791,0.26,0.221,0.068
32,0,II,15,0.908,0.14,0.11,0.02
33,0,II,16,0.453,0.528,0.501,0.279
34,0,III,0,0.284,0.366,0.286,0.134
35,0,III,1,0.56,0.336,0.261,0.113
36,0,III,2,0.369,0.393,0.319,0.154
37,0,III,3,0.302,0.394,0.333,0.155
38,0,III,4,0.707,0.561,0.546,0.315
39,0,III,5,0.569,0.3,0.256,0.09
40,0,III,6,0.462,0.483,0.462,0.234
41,0,III,7,0.919,0.21,0.154,0.044
42,0,III,8,0.855,0.141,0.068,0.02
43,0,III,9,0.083,0.491,0.445,0.242
44,0,III,10,0.351,0.279,0.219,0.078
45,0,III,11,0.576,0.27,0.237,0.073
46,0,III,12,-0.109,0.493,0.415,0.243
47,0,III,13,0.436,0.232,0.165,0.054
48,0,III,14,0.142,0.622,0.575,0.386
49,0,III,15,0.003,0.313,0.25,0.098
50,0,III,16,0.501,0.222,0.182,0.049
51,0,AVR,0,0.69,0.288,0.252,0.083
52,0,AVR,1,0.981,0.048,0.036,0.002
53,0,AVR,2,0.928,0.1,0.074,0.01
54,0,AVR,3,0.978,0.058,0.045,0.003
55,0,AVR,4,0.849,0.16,0.13,0.026
56,0,AVR,5,0.989,0.047,0.036,0.002
57,0,AVR,6,0.926,0.086,0.056,0.007
58,0,AVR,7,0.748,0.333,0.27,0.111
59,0,AVR,8,0.925,0.109,0.08,0.012
60,0,AVR,9,0.486,0.37,0.313,0.137
61,0,AVR,10,0.769,0.2,0.139,0.04
62,0,AVR,11,0.574,0.248,0.185,0.062
63,0,AVR,12,0.87,0.193,0.164,0.037
64,0,AVR,13,0.924,0.12,0.092,0.014
65,0,AVR,14,0.835,0.137,0.111,0.019
66,0,AVR,15,0.955,0.081,0.065,0.007
67,0,AVR,16,0.45,0.511,0.494,0.262
68,0,AVL,0,0.584,0.287,0.221,0.083
69,0,AVL,1,0.78,0.195,0.144,0.038
70,0,AVL,2,0.712,0.281,0.237,0.079
71,0,AVL,3,0.271,0.38,0.314,0.144
72,0,AVL,4,0.883,0.395,0.378,0.156
73,0,AVL,5,0.213,0.421,0.365,0.177
74,0,AVL,6,0.589,0.285,0.248,0.082
75,0,AVL,7,0.944,0.155,0.112,0.024
76,0,AVL,8,0.809,0.295,0.212,0.087
77,0,AVL,9,0.188,0.452,0.392,0.205
78,0,AVL,10,0.614,0.279,0.221,0.078
79,0,AVL,11,0.851,0.253,0.23,0.064
80,0,AVL,12,0.61,0.246,0.189,0.061
81,0,AVL,13,0.581,0.268,0.183,0.072
82,0,AVL,14,-0.475,0.623,0.57,0.388
83,0,AVL,15,0.797,0.182,0.152,0.033
84,0,AVL,16,0.587,0.176,0.099,0.031
85,0,AVF,0,0.047,0.464,0.381,0.216
86,0,AVF,1,0.847,0.149,0.119,0.022
87,0,AVF,2,0.568,0.29,0.229,0.084
88,0,AVF,3,0.754,0.28,0.246,0.078
89,0,AVF,4,-0.032,0.67,0.645,0.449
90,0,AVF,5,0.867,0.241,0.214,0.058
91,0,AVF,6,0.979,0.043,0.031,0.002
92,0,AVF,7,0.87,0.248,0.182,0.062
93,0,AVF,8,0.931,0.112,0.073,0.013
94,0,AVF,9,0.2,0.522,0.479,0.272
95,0,AVF,10,0.553,0.348,0.282,0.121
96,0,AVF,11,-0.301,0.324,0.276,0.105
97,0,AVF,12,0.317,0.328,0.278,0.108
98,0,AVF,13,0.761,0.158,0.115,0.025
99,0,AVF,14,0.588,0.413,0.375,0.171
100,0,AVF,15,0.442,0.352,0.305,0.124
101,0,AVF,16,0.362,0.346,0.322,0.12
102,0,V1,0,0.858,0.143,0.107,0.021
103,0,V1,1,0.826,0.177,0.138,0.031
104,0,V1,2,0.738,0.196,0.164,0.038
105,0,V1,3,0.57,0.23,0.198,0.053
106,0,V1,4,0.988,0.059,0.048,0.003
107,0,V1,5,0.852,0.249,0.226,0.062
108,0,V1,6,0.885,0.202,0.182,0.041
109,0,V1,7,0.984,0.075,0.056,0.006
110,0,V1,8,0.932,0.11,0.082,0.012
111,0,V1,9,0.768,0.392,0.354,0.153
112,0,V1,10,0.704,0.177,0.135,0.031
113,0,V1,11,0.092,0.473,0.427,0.223
114,0,V1,12,0.404,0.52,0.444,0.27
115,0,V1,13,0.677,0.346,0.316,0.119
116,0,V1,14,0.741,0.172,0.115,0.03
117,0,V1,15,0.311,0.443,0.366,0.196
118,0,V1,16,-0.012,0.257,0.164,0.066
119,0,V2,0,0.818,0.196,0.154,0.038
120,0,V2,1,0.836,0.217,0.195,0.047
121,0,V2,2,0.764,0.178,0.136,0.032
122,0,V2,3,0.757,0.205,0.161,0.042
123,0,V2,4,0.953,0.149,0.131,0.022
124,0,V2,5,0.955,0.126,0.115,0.016
125,0,V2,6,0.787,0.346,0.327,0.12
126,0,V2,7,0.981,0.09,0.071,0.008
127,0,V2,8,0.676,0.245,0.181,0.06
128,0,V2,9,0.949,0.112,0.089,0.012
129,0,V2,10,0.842,0.171,0.135,0.029
130,0,V2,11,0.796,0.15,0.117,0.022
131,0,V2,12,0.832,0.154,0.107,0.024
132,0,V2,13,0.686,0.409,0.355,0.167
133,0,V2,14,0.909,0.136,0.108,0.019
134,0,V2,15,0.791,0.229,0.191,0.052
135,0,V2,16,0.315,0.222,0.111,0.049
136,0,V3,0,0.751,0.246,0.207,0.061
137,0,V3,1,0.722,0.282,0.241,0.079
138,0,V3,2,0.724,0.171,0.128,0.029
139,0,V3,3,0.896,0.147,0.116,0.022
140,0,V3,4,0.813,0.144,0.112,0.021
141,0,V3,5,0.758,0.516,0.496,0.267
142,0,V3,6,0.639,0.537,0.519,0.289
143,0,V3,7,0.976,0.101,0.081,0.01
144,0,V3,8,0.654,0.227,0.163,0.052
145,0,V3,9,0.976,0.057,0.044,0.003
146,0,V3,10,0.855,0.153,0.108,0.023
147,0,V3,11,0.904,0.113,0.088,0.013
148,0,V3,12,0.943,0.112,0.097,0.013
149,0,V3,13,0.828,0.214,0.186,0.046
150,0,V3,14,0.906,0.23,0.211,0.053
151,0,V3,15,0.83,0.232,0.209,0.054
152,0,V3,16,0.705,0.175,0.11,0.031
153,0,V4,0,0.933,0.088,0.068,0.008
154,0,V4,1,0.902,0.123,0.098,0.015
155,0,V4,2,0.831,0.15,0.11,0.022
156,0,V4,3,0.204,0.441,0.378,0.195
157,0,V4,4,0.439,0.5,0.47,0.25
158,0,V4,5,0.868,0.417,0.408,0.174
159,0,V4,6,0.634,0.407,0.393,0.166
160,0,V4,7,0.934,0.178,0.123,0.032
161,0,V4,8,0.681,0.271,0.183,0.073
162,0,V4,9,0.888,0.211,0.189,0.045
163,0,V4,10,0.797,0.194,0.149,0.038
164,0,V4,11,0.98,0.044,0.032,0.002
165,0,V4,12,0.985,0.04,0.03,0.002
166,0,V4,13,0.889,0.119,0.089,0.014
167,0,V4,14,0.891,0.241,0.224,0.058
168,0,V4,15,0.933,0.181,0.172,0.033
169,0,V4,16,0.932,0.073,0.058,0.005
170,0,V5,0,0.95,0.09,0.073,0.008
171,0,V5,1,0.964,0.061,0.045,0.004
172,0,V5,2,0.823,0.226,0.193,0.051
173,0,V5,3,0.808,0.183,0.16,0.033
174,0,V5,4,0.666,0.271,0.232,0.074
175,0,V5,5,0.917,0.24,0.223,0.058
176,0,V5,6,0.821,0.211,0.197,0.045
177,0,V5,7,0.334,0.386,0.301,0.149
178,0,V5,8,0.9,0.18,0.144,0.032
179,0,V5,9,0.596,0.534,0.507,0.285
180,0,V5,10,0.817,0.159,0.113,0.025
181,0,V5,11,0.931,0.124,0.105,0.015
182,0,V5,12,0.542,0.29,0.242,0.084
183,0,V5,13,0.916,0.104,0.075,0.011
184,0,V5,14,0.955,0.078,0.06,0.006
185,0,V5,15,0.959,0.09,0.073,0.008
186,0,V5,16,0.781,0.159,0.13,0.025
187,0,V6,0,0.99,0.04,0.031,0.002
188,0,V6,1,0.973,0.073,0.059,0.005
189,0,V6,2,0.859,0.167,0.13,0.028
190,0,V6,3,0.135,0.554,0.423,0.306
191,0,V6,4,0.841,0.171,0.132,0.029
192,0,V6,5,0.926,0.174,0.148,0.03
193,0,V6,6,0.929,0.154,0.131,0.024
194,0,V6,7,0.851,0.212,0.169,0.045
195,0,V6,8,0.771,0.248,0.196,0.062
196,0,V6,9,0.285,0.538,0.502,0.289
197,0,V6,10,0.832,0.196,0.139,0.038
198,0,V6,11,0.688,0.293,0.247,0.086
199,0,V6,12,0.894,0.14,0.117,0.02
200,0,V6,13,0.926,0.143,0.114,0.02
201,0,V6,14,0.933,0.085,0.063,0.007
202,0,V6,15,0.988,0.042,0.031,0.002
203,0,V6,16,0.599,0.327,0.309,0.107
204,1,I,0,0.774,0.249,0.196,0.062
205,1,I,1,0.54,0.466,0.398,0.217
206,1,I,2,0.259,0.675,0.592,0.455
207,1,I,3,0.431,0.252,0.171,0.064
208,1,I,4,0.718,0.322,0.274,0.104
209,1,I,5,0.928,0.112,0.086,0.013
210,1,I,6,0.881,0.109,0.081,0.012
211,1,I,7,0.935,0.174,0.152,0.03
212,1,I,8,0.757,0.278,0.241,0.077
213,1,I,9,0.967,0.12,0.102,0.014
214,1,I,10,0.845,0.18,0.141,0.032
215,1,I,11,0.931,0.115,0.091,0.013
216,1,I,12,0.969,0.111,0.093,0.012
217,1,I,13,0.589,0.247,0.199,0.061
218,1,I,14,0.914,0.134,0.108,0.018
219,1,I,15,0.961,0.087,0.064,0.008
220,1,I,16,0.99,0.048,0.037,0.002
221,1,II,0,0.771,0.227,0.181,0.051
222,1,II,1,0.945,0.109,0.086,0.012
223,1,II,2,0.528,0.29,0.243,0.084
224,1,II,3,0.983,0.078,0.062,0.006
225,1,II,4,0.238,0.773,0.749,0.597
226,1,II,5,0.816,0.214,0.181,0.046
227,1,II,6,0.836,0.176,0.13,0.031
228,1,II,7,0.588,0.255,0.202,0.065
229,1,II,8,0.89,0.131,0.092,0.017
230,1,II,9,0.573,0.324,0.265,0.105
231,1,II,10,0.876,0.161,0.134,0.026
232,1,II,11,0.474,0.447,0.373,0.2
233,1,II,12,0.893,0.135,0.098,0.018
234,1,II,13,0.651,0.233,0.184,0.054
235,1,II,14,0.982,0.054,0.041,0.003
236,1,II,15,0.961,0.078,0.056,0.006
237,1,II,16,0.306,0.4,0.321,0.16
238,1,III,0,0.303,0.494,0.412,0.244
239,1,III,1,0.55,0.368,0.276,0.136
240,1,III,2,-0.336,0.646,0.564,0.417
241,1,III,3,0.587,0.269,0.187,0.072
242,1,III,4,0.695,0.42,0.389,0.176
243,1,III,5,-0.195,0.447,0.387,0.2
244,1,III,6,0.356,0.388,0.29,0.151
245,1,III,7,0.961,0.082,0.063,0.007
246,1,III,8,0.431,0.393,0.309,0.155
247,1,III,9,0.389,0.568,0.544,0.323
248,1,III,10,0.929,0.111,0.078,0.012
249,1,III,11,0.632,0.547,0.533,0.299
250,1,III,12,0.466,0.303,0.23,0.092
251,1,III,13,0.857,0.124,0.091,0.015
252,1,III,14,0.929,0.12,0.095,0.014
253,1,III,15,0.635,0.355,0.253,0.126
254,1,III,16,0.83,0.365,0.341,0.133
255,1,AVR,0,0.84,0.26,0.228,0.068
256,1,AVR,1,0.946,0.099,0.071,0.01
257,1,AVR,2,0.449,0.368,0.288,0.135
258,1,AVR,3,0.828,0.171,0.108,0.029
259,1,AVR,4,0.441,0.482,0.42,0.232
260,1,AVR,5,0.925,0.105,0.082,0.011
261,1,AVR,6,0.943,0.131,0.111,0.017
262,1,AVR,7,0.848,0.189,0.153,0.036
263,1,AVR,8,0.879,0.238,0.214,0.056
264,1,AVR,9,0.949,0.094,0.074,0.009
265,1,AVR,10,0.88,0.115,0.078,0.013
266,1,AVR,11,0.851,0.164,0.127,0.027
267,1,AVR,12,0.973,0.069,0.055,0.005
268,1,AVR,13,0.559,0.449,0.375,0.202
269,1,AVR,14,0.968,0.07,0.057,0.005
270,1,AVR,15,0.957,0.084,0.059,0.007
271,1,AVR,16,0.857,0.173,0.137,0.03
272,1,AVL,0,0.57,0.349,0.271,0.122
273,1,AVL,1,0.17,0.663,0.555,0.44
274,1,AVL,2,-0.121,0.612,0.501,0.375
275,1,AVL,3,0.332,0.257,0.169,0.066
276,1,AVL,4,0.724,0.358,0.324,0.128
277,1,AVL,5,0.456,0.238,0.202,0.056
278,1,AVL,6,0.523,0.242,0.193,0.059
279,1,AVL,7,0.966,0.11,0.09,0.012
280,1,AVL,8,0.445,0.329,0.276,0.108
281,1,AVL,9,0.877,0.26,0.236,0.068
282,1,AVL,10,0.881,0.158,0.123,0.025
283,1,AVL,11,0.926,0.317,0.304,0.101
284,1,AVL,12,0.807,0.176,0.132,0.031
285,1,AVL,13,0.748,0.169,0.13,0.029
286,1,AVL,14,0.463,0.354,0.304,0.126
287,1,AVL,15,0.914,0.107,0.077,0.012
288,1,AVL,16,0.945,0.18,0.163,0.033
289,1,AVF,0,0.194,0.576,0.52,0.332
290,1,AVF,1,0.836,0.192,0.145,0.037
291,1,AVF,2,0.277,0.339,0.283,0.115
292,1,AVF,3,0.866,0.224,0.17,0.05
293,1,AVF,4,0.561,0.553,0.521,0.305
294,1,AVF,5,0.538,0.308,0.261,0.095
295,1,AVF,6,0.56,0.345,0.251,0.119
296,1,AVF,7,0.83,0.171,0.134,0.029
297,1,AVF,8,0.758,0.264,0.215,0.07
298,1,AVF,9,-0.321,0.81,0.786,0.656
299,1,AVF,10,0.963,0.07,0.048,0.005
300,1,AVF,11,-0.192,0.709,0.678,0.502
301,1,AVF,12,0.664,0.306,0.218,0.093
302,1,AVF,13,0.775,0.163,0.131,0.027
303,1,AVF,14,0.991,0.041,0.032,0.002
304,1,AVF,15,0.806,0.182,0.127,0.033
305,1,AVF,16,0.342,0.463,0.433,0.214
306,1,V1,0,0.898,0.228,0.207,0.052
307,1,V1,1,0.852,0.14,0.101,0.02
308,1,V1,2,0.73,0.228,0.181,0.052
309,1,V1,3,0.743,0.258,0.216,0.067
310,1,V1,4,0.766,0.216,0.168,0.047
311,1,V1,5,0.87,0.133,0.095,0.018
312,1,V1,6,0.892,0.164,0.141,0.027
313,1,V1,7,0.821,0.276,0.235,0.076
314,1,V1,8,0.699,0.241,0.19,0.058
315,1,V1,9,0.867,0.218,0.19,0.047
316,1,V1,10,0.833,0.137,0.091,0.019
317,1,V1,11,0.987,0.051,0.04,0.003
318,1,V1,12,0.874,0.149,0.123,0.022
319,1,V1,13,0.455,0.338,0.269,0.114
320,1,V1,14,0.872,0.188,0.155,0.035
321,1,V1,15,0.967,0.08,0.063,0.006
322,1,V1,16,0.91,0.16,0.135,0.025
323,1,V2,0,0.913,0.112,0.084,0.013
324,1,V2,1,0.933,0.134,0.116,0.018
325,1,V2,2,0.9,0.224,0.189,0.05
326,1,V2,3,0.644,0.334,0.298,0.111
327,1,V2,4,0.749,0.204,0.163,0.042
328,1,V2,5,0.199,0.526,0.432,0.277
329,1,V2,6,0.914,0.116,0.079,0.013
330,1,V2,7,0.546,0.458,0.434,0.21
331,1,V2,8,0.911,0.128,0.101,0.016
332,1,V2,9,0.419,0.537,0.517,0.288
333,1,V2,10,0.831,0.158,0.127,0.025
334,1,V2,11,0.957,0.175,0.157,0.031
335,1,V2,12,0.77,0.306,0.253,0.094
336,1,V2,13,0.066,0.373,0.283,0.139
337,1,V2,14,0.963,0.086,0.061,0.007
338,1,V2,15,0.857,0.167,0.133,0.028
339,1,V2,16,0.619,0.297,0.254,0.088
340,1,V3,0,0.856,0.144,0.115,0.021
341,1,V3,1,0.821,0.304,0.28,0.093
342,1,V3,2,0.97,0.081,0.061,0.007
343,1,V3,3,0.611,0.327,0.288,0.107
344,1,V3,4,0.718,0.211,0.149,0.045
345,1,V3,5,0.528,0.539,0.516,0.29
346,1,V3,6,0.796,0.185,0.136,0.034
347,1,V3,7,0.412,0.473,0.424,0.224
348,1,V3,8,0.894,0.137,0.109,0.019
349,1,V3,9,0.529,0.426,0.405,0.181
350,1,V3,10,0.859,0.248,0.222,0.062
351,1,V3,11,0.825,0.246,0.211,0.061
352,1,V3,12,0.787,0.285,0.231,0.081
353,1,V3,13,0.377,0.24,0.173,0.057
354,1,V3,14,0.631,0.593,0.57,0.352
355,1,V3,15,0.664,0.283,0.21,0.08
356,1,V3,16,-0.439,0.748,0.663,0.56
357,1,V4,0,0.769,0.256,0.226,0.066
358,1,V4,1,0.867,0.254,0.207,0.064
359,1,V4,2,0.83,0.384,0.364,0.148
360,1,V4,3,0.663,0.232,0.193,0.054
361,1,V4,4,0.663,0.29,0.216,0.084
362,1,V4,5,0.826,0.379,0.367,0.143
363,1,V4,6,0.782,0.263,0.194,0.069
364,1,V4,7,0.527,0.499,0.48,0.249
365,1,V4,8,0.887,0.12,0.087,0.014
366,1,V4,9,0.99,0.044,0.035,0.002
367,1,V4,10,0.609,0.384,0.354,0.147
368,1,V4,11,0.661,0.271,0.23,0.073
369,1,V4,12,0.922,0.136,0.103,0.018
370,1,V4,13,0.317,0.308,0.214,0.095
371,1,V4,14,0.946,0.08,0.059,0.006
372,1,V4,15,0.945,0.124,0.103,0.015
373,1,V4,16,0.167,0.565,0.522,0.319
374,1,V5,0,0.68,0.302,0.265,0.091
375,1,V5,1,0.922,0.114,0.083,0.013
376,1,V5,2,0.675,0.335,0.308,0.112
377,1,V5,3,0.64,0.186,0.112,0.035
378,1,V5,4,0.427,0.37,0.326,0.137
379,1,V5,5,0.952,0.152,0.137,0.023
380,1,V5,6,0.94,0.137,0.118,0.019
381,1,V5,7,0.838,0.337,0.32,0.114
382,1,V5,8,0.899,0.118,0.087,0.014
383,1,V5,9,0.949,0.082,0.06,0.007
384,1,V5,10,0.711,0.176,0.126,0.031
385,1,V5,11,0.517,0.421,0.36,0.177
386,1,V5,12,0.941,0.16,0.136,0.026
387,1,V5,13,0.559,0.265,0.183,0.07
388,1,V5,14,0.966,0.065,0.05,0.004
389,1,V5,15,0.641,0.223,0.145,0.05
390,1,V5,16,0.836,0.252,0.208,0.064
391,1,V6,0,0.739,0.169,0.135,0.029
392,1,V6,1,0.96,0.097,0.073,0.009
393,1,V6,2,-0.035,0.594,0.453,0.353
394,1,V6,3,0.627,0.245,0.196,0.06
395,1,V6,4,0.427,0.507,0.462,0.257
396,1,V6,5,0.992,0.033,0.023,0.001
397,1,V6,6,0.918,0.101,0.079,0.01
398,1,V6,7,0.864,0.23,0.204,0.053
399,1,V6,8,0.916,0.127,0.094,0.016
400,1,V6,9,0.944,0.138,0.115,0.019
401,1,V6,10,0.836,0.136,0.087,0.018
402,1,V6,11,0.585,0.36,0.3,0.129
403,1,V6,12,0.921,0.141,0.119,0.02
404,1,V6,13,0.449,0.37,0.305,0.137
405,1,V6,14,0.948,0.082,0.065,0.007
406,1,V6,15,0.873,0.149,0.109,0.022
407,1,V6,16,0.935,0.158,0.128,0.025
408,2,I,0,0.868,0.136,0.1,0.018
409,2,I,1,0.9,0.257,0.242,0.066
410,2,I,2,0.641,0.236,0.156,0.056
411,2,I,3,0.964,0.153,0.126,0.023
412,2,I,4,0.886,0.162,0.128,0.026
413,2,I,5,0.904,0.137,0.091,0.019
414,2,I,6,0.655,0.222,0.17,0.049
415,2,I,7,0.618,0.438,0.335,0.192
416,2,I,8,0.835,0.155,0.124,0.024
417,2,I,9,0.835,0.208,0.185,0.043
418,2,I,10,0.841,0.302,0.281,0.091
419,2,I,11,0.938,0.143,0.127,0.021
420,2,I,12,0.8,0.318,0.295,0.101
421,2,I,13,0.549,0.315,0.269,0.099
422,2,I,14,0.936,0.14,0.121,0.019
423,2,I,15,0.933,0.146,0.106,0.021
424,2,I,16,0.97,0.156,0.143,0.024
425,2,II,0,0.51,0.456,0.357,0.208
426,2,II,1,0.473,0.456,0.414,0.208
427,2,II,2,0.844,0.328,0.303,0.107
428,2,II,3,0.849,0.293,0.268,0.086
429,2,II,4,0.844,0.16,0.121,0.025
430,2,II,5,0.262,0.48,0.337,0.23
431,2,II,6,0.813,0.434,0.42,0.188
432,2,II,7,0.737,0.359,0.27,0.129
433,2,II,8,0.974,0.064,0.039,0.004
434,2,II,9,0.889,0.219,0.197,0.048
435,2,II,10,0.876,0.225,0.204,0.051
436,2,II,11,0.937,0.18,0.162,0.032
437,2,II,12,0.893,0.145,0.111,0.021
438,2,II,13,0.686,0.29,0.245,0.084
439,2,II,14,0.816,0.313,0.285,0.098
440,2,II,15,0.952,0.097,0.069,0.009
441,2,II,16,0.993,0.039,0.031,0.002
442,2,III,0,0.753,0.271,0.204,0.073
443,2,III,1,0.841,0.379,0.362,0.144
444,2,III,2,-0.029,0.534,0.465,0.285
445,2,III,3,0.809,0.261,0.206,0.068
446,2,III,4,0.589,0.309,0.227,0.095
447,2,III,5,0.462,0.253,0.172,0.064
448,2,III,6,-0.265,0.555,0.512,0.308
449,2,III,7,0.598,0.266,0.201,0.071
450,2,III,8,0.949,0.093,0.066,0.009
451,2,III,9,-0.239,0.579,0.533,0.335
452,2,III,10,0.451,0.377,0.349,0.142
453,2,III,11,0.196,0.308,0.255,0.095
454,2,III,12,0.984,0.064,0.049,0.004
455,2,III,13,-0.104,0.484,0.458,0.235
456,2,III,14,0.977,0.056,0.042,0.003
457,2,III,15,0.697,0.217,0.15,0.047
458,2,III,16,0.875,0.136,0.099,0.019
459,2,AVR,0,0.779,0.199,0.165,0.04
460,2,AVR,1,0.803,0.167,0.136,0.028
461,2,AVR,2,0.799,0.325,0.296,0.106
462,2,AVR,3,0.948,0.31,0.291,0.096
463,2,AVR,4,0.901,0.143,0.116,0.021
464,2,AVR,5,0.727,0.236,0.181,0.055
465,2,AVR,6,0.857,0.188,0.161,0.035
466,2,AVR,7,0.633,0.431,0.325,0.186
467,2,AVR,8,0.95,0.088,0.067,0.008
468,2,AVR,9,0.98,0.054,0.04,0.003
469,2,AVR,10,0.891,0.211,0.188,0.044
470,2,AVR,11,0.959,0.169,0.154,0.028
471,2,AVR,12,0.825,0.227,0.195,0.051
472,2,AVR,13,0.721,0.2,0.159,0.04
473,2,AVR,14,0.887,0.211,0.192,0.044
474,2,AVR,15,0.97,0.091,0.071,0.008
475,2,AVR,16,0.989,0.045,0.035,0.002
476,2,AVL,0,0.858,0.159,0.115,0.025
477,2,AVL,1,0.897,0.384,0.371,0.148
478,2,AVL,2,0.259,0.261,0.206,0.068
479,2,AVL,3,0.902,0.226,0.173,0.051
480,2,AVL,4,0.655,0.292,0.208,0.085
481,2,AVL,5,0.844,0.193,0.135,0.037
482,2,AVL,6,0.044,0.526,0.462,0.277
483,2,AVL,7,0.632,0.443,0.371,0.197
484,2,AVL,8,0.75,0.294,0.231,0.086
485,2,AVL,9,-0.019,0.587,0.535,0.344
486,2,AVL,10,0.485,0.334,0.283,0.112
487,2,AVL,11,0.854,0.233,0.207,0.054
488,2,AVL,12,0.916,0.243,0.221,0.059
489,2,AVL,13,0.273,0.394,0.361,0.155
490,2,AVL,14,0.96,0.079,0.059,0.006
491,2,AVL,15,0.815,0.205,0.126,0.042
492,2,AVL,16,0.812,0.353,0.328,0.125
493,2,AVF,0,0.56,0.37,0.285,0.137
494,2,AVF,1,0.605,0.455,0.432,0.207
495,2,AVF,2,0.664,0.374,0.326,0.14
496,2,AVF,3,0.653,0.248,0.203,0.062
497,2,AVF,4,0.767,0.198,0.147,0.039
498,2,AVF,5,-0.029,0.636,0.502,0.405
499,2,AVF,6,0.522,0.483,0.461,0.234
500,2,AVF,7,0.813,0.288,0.22,0.083
501,2,AVF,8,0.984,0.051,0.037,0.003
502,2,AVF,9,0.617,0.449,0.417,0.202
503,2,AVF,10,0.861,0.291,0.275,0.084
504,2,AVF,11,0.779,0.169,0.13,0.029
505,2,AVF,12,0.945,0.125,0.096,0.016
506,2,AVF,13,0.116,0.448,0.398,0.201
507,2,AVF,14,0.908,0.127,0.089,0.016
508,2,AVF,15,0.837,0.151,0.099,0.023
509,2,AVF,16,0.987,0.056,0.041,0.003
510,2,V1,0,0.797,0.177,0.14,0.031
511,2,V1,1,0.94,0.298,0.284,0.089
512,2,V1,2,0.834,0.252,0.221,0.064
513,2,V1,3,0.985,0.07,0.053,0.005
514,2,V1,4,0.963,0.062,0.046,0.004
515,2,V1,5,0.873,0.165,0.132,0.027
516,2,V1,6,0.751,0.194,0.149,0.038
517,2,V1,7,0.533,0.29,0.208,0.084
518,2,V1,8,0.945,0.137,0.113,0.019
519,2,V1,9,0.215,1.068,1.018,1.14
520,2,V1,10,0.945,0.212,0.198,0.045
521,2,V1,11,0.925,0.093,0.07,0.009
522,2,V1,12,-0.215,0.679,0.636,0.461
523,2,V1,13,0.971,0.082,0.061,0.007
524,2,V1,14,0.389,0.408,0.348,0.167
525,2,V1,15,0.948,0.13,0.094,0.017
526,2,V1,16,0.935,0.122,0.089,0.015
527,2,V2,0,0.837,0.139,0.111,0.019
528,2,V2,1,0.891,0.284,0.27,0.08
529,2,V2,2,0.238,0.392,0.352,0.154
530,2,V2,3,0.963,0.164,0.143,0.027
531,2,V2,4,0.822,0.247,0.192,0.061
532,2,V2,5,0.82,0.214,0.156,0.046
533,2,V2,6,0.828,0.209,0.171,0.044
534,2,V2,7,0.713,0.214,0.165,0.046
535,2,V2,8,0.576,0.301,0.261,0.091
536,2,V2,9,0.87,0.209,0.182,0.044
537,2,V2,10,0.938,0.258,0.247,0.067
538,2,V2,11,0.853,0.137,0.099,0.019
539,2,V2,12,0.072,0.705,0.686,0.497
540,2,V2,13,0.912,0.138,0.097,0.019
541,2,V2,14,0.815,0.259,0.227,0.067
542,2,V2,15,0.957,0.09,0.067,0.008
543,2,V2,16,0.578,0.384,0.372,0.148
544,2,V3,0,0.655,0.274,0.227,0.075
545,2,V3,1,0.851,0.374,0.363,0.14
546,2,V3,2,0.198,0.315,0.237,0.099
547,2,V3,3,0.956,0.232,0.21,0.054
548,2,V3,4,0.757,0.39,0.345,0.152
549,2,V3,5,0.583,0.387,0.276,0.15
550,2,V3,6,0.982,0.055,0.037,0.003
551,2,V3,7,0.383,0.471,0.402,0.222
552,2,V3,8,0.61,0.263,0.197,0.069
553,2,V3,9,0.431,0.442,0.404,0.195
554,2,V3,10,0.987,0.05,0.037,0.003
555,2,V3,11,0.434,0.334,0.288,0.111
556,2,V3,12,-0.045,0.667,0.614,0.445
557,2,V3,13,0.849,0.188,0.163,0.035
558,2,V3,14,0.808,0.313,0.28,0.098
559,2,V3,15,0.895,0.159,0.125,0.025
560,2,V3,16,0.745,0.354,0.345,0.125
561,2,V4,0,0.453,0.279,0.21,0.078
562,2,V4,1,0.905,0.214,0.196,0.046
563,2,V4,2,0.987,0.091,0.063,0.008
564,2,V4,3,0.627,0.324,0.299,0.105
565,2,V4,4,0.908,0.125,0.093,0.016
566,2,V4,5,0.192,0.566,0.419,0.321
567,2,V4,6,0.865,0.151,0.122,0.023
568,2,V4,7,0.671,0.362,0.308,0.131
569,2,V4,8,0.738,0.206,0.178,0.043
570,2,V4,9,0.482,0.3,0.269,0.09
571,2,V4,10,0.83,0.285,0.266,0.081
572,2,V4,11,0.978,0.052,0.036,0.003
573,2,V4,12,0.656,0.28,0.241,0.079
574,2,V4,13,0.858,0.156,0.134,0.024
575,2,V4,14,0.78,0.213,0.18,0.045
576,2,V4,15,0.843,0.159,0.125,0.025
577,2,V4,16,0.965,0.201,0.193,0.04
578,2,V5,0,0.331,0.442,0.38,0.195
579,2,V5,1,0.978,0.05,0.036,0.002
580,2,V5,2,-0.066,0.419,0.378,0.175
581,2,V5,3,0.911,0.303,0.287,0.092
582,2,V5,4,0.922,0.109,0.093,0.012
583,2,V5,5,0.356,0.344,0.251,0.118
584,2,V5,6,0.897,0.27,0.256,0.073
585,2,V5,7,0.847,0.212,0.161,0.045
586,2,V5,8,0.853,0.178,0.153,0.032
587,2,V5,9,0.295,0.379,0.332,0.144
588,2,V5,10,0.839,0.234,0.207,0.055
589,2,V5,11,0.593,0.239,0.196,0.057
590,2,V5,12,0.839,0.174,0.138,0.03
591,2,V5,13,0.855,0.125,0.092,0.016
592,2,V5,14,0.817,0.331,0.306,0.109
593,2,V5,15,0.916,0.114,0.076,0.013
594,2,V5,16,0.988,0.117,0.109,0.014
595,2,V6,0,0.237,0.51,0.427,0.26
596,2,V6,1,0.868,0.163,0.136,0.027
597,2,V6,2,0.649,0.296,0.242,0.088
598,2,V6,3,0.939,0.321,0.302,0.103
599,2,V6,4,0.926,0.106,0.083,0.011
600,2,V6,5,0.521,0.429,0.334,0.184
601,2,V6,6,0.856,0.266,0.24,0.071
602,2,V6,7,0.815,0.166,0.126,0.028
603,2,V6,8,0.492,0.392,0.341,0.153
604,2,V6,9,0.652,0.221,0.183,0.049
605,2,V6,10,0.859,0.197,0.165,0.039
606,2,V6,11,0.843,0.141,0.118,0.02
607,2,V6,12,0.191,0.416,0.297,0.173
608,2,V6,13,0.804,0.152,0.107,0.023
609,2,V6,14,0.795,0.358,0.338,0.128
610,2,V6,15,0.936,0.118,0.093,0.014
611,2,V6,16,0.971,0.092,0.076,0.008
612,3,I,0,0.912,0.185,0.147,0.034
613,3,I,1,0.922,0.094,0.063,0.009
614,3,I,2,0.759,0.284,0.228,0.08
615,3,I,3,0.849,0.122,0.078,0.015
616,3,I,4,0.407,0.5,0.474,0.25
617,3,I,5,0.99,0.04,0.031,0.002
618,3,I,6,0.929,0.147,0.125,0.022
619,3,I,7,0.26,0.673,0.642,0.453
620,3,I,8,0.789,0.335,0.278,0.112
621,3,I,9,0.753,0.203,0.152,0.041
622,3,I,10,0.799,0.302,0.253,0.091
623,3,I,11,0.885,0.169,0.121,0.028
624,3,I,12,0.917,0.102,0.084,0.01
625,3,I,13,0.835,0.157,0.127,0.025
626,3,I,14,0.986,0.044,0.035,0.002
627,3,I,15,0.905,0.123,0.09,0.015
628,3,I,16,0.81,0.255,0.228,0.065
629,3,II,0,0.047,0.393,0.306,0.154
630,3,II,1,0.948,0.091,0.068,0.008
631,3,II,2,0.711,0.26,0.213,0.068
632,3,II,3,0.788,0.221,0.182,0.049
633,3,II,4,0.897,0.255,0.222,0.065
634,3,II,5,0.912,0.145,0.121,0.021
635,3,II,6,0.879,0.11,0.089,0.012
636,3,II,7,0.608,0.274,0.232,0.075
637,3,II,8,0.932,0.118,0.091,0.014
638,3,II,9,0.727,0.223,0.148,0.05
639,3,II,10,0.783,0.381,0.354,0.145
640,3,II,11,0.952,0.089,0.069,0.008
641,3,II,12,0.96,0.155,0.137,0.024
642,3,II,13,0.86,0.17,0.133,0.029
643,3,II,14,0.776,0.332,0.313,0.11
644,3,II,15,0.818,0.185,0.128,0.034
645,3,II,16,0.545,0.216,0.164,0.047
646,3,III,0,0.902,0.21,0.167,0.044
647,3,III,1,0.402,0.401,0.303,0.161
648,3,III,2,0.719,0.244,0.178,0.06
649,3,III,3,0.281,0.35,0.285,0.123
650,3,III,4,0.835,0.309,0.289,0.096
651,3,III,5,0.515,0.33,0.289,0.109
652,3,III,6,-0.333,0.554,0.5,0.307
653,3,III,7,-0.536,0.645,0.601,0.416
654,3,III,8,0.871,0.185,0.132,0.034
655,3,III,9,0.339,0.498,0.345,0.248
656,3,III,10,0.963,0.085,0.062,0.007
657,3,III,11,0.567,0.353,0.254,0.125
658,3,III,12,0.779,0.264,0.194,0.07
659,3,III,13,0.245,0.271,0.192,0.073
660,3,III,14,0.737,0.229,0.196,0.053
661,3,III,15,0.722,0.29,0.232,0.084
662,3,III,16,0.81,0.22,0.177,0.048
663,3,AVR,0,0.553,0.368,0.304,0.136
664,3,AVR,1,0.97,0.081,0.063,0.007
665,3,AVR,2,0.767,0.256,0.193,0.065
666,3,AVR,3,0.918,0.143,0.116,0.02
667,3,AVR,4,0.376,0.361,0.294,0.131
668,3,AVR,5,0.977,0.064,0.048,0.004
669,3,AVR,6,0.941,0.084,0.07,0.007
670,3,AVR,7,0.453,0.58,0.549,0.336
671,3,AVR,8,0.831,0.283,0.238,0.08
672,3,AVR,9,0.822,0.174,0.135,0.03
673,3,AVR,10,0.788,0.318,0.275,0.101
674,3,AVR,11,0.937,0.17,0.141,0.029
675,3,AVR,12,0.979,0.053,0.039,0.003
676,3,AVR,13,0.894,0.13,0.101,0.017
677,3,AVR,14,0.964,0.087,0.072,0.008
678,3,AVR,15,0.898,0.125,0.091,0.016
679,3,AVR,16,0.682,0.334,0.298,0.112
680,3,AVL,0,0.969,0.106,0.083,0.011
681,3,AVL,1,0.645,0.311,0.245,0.097
682,3,AVL,2,0.766,0.203,0.145,0.041
683,3,AVL,3,0.685,0.172,0.12,0.029
684,3,AVL,4,0.717,0.384,0.363,0.147
685,3,AVL,5,0.95,0.162,0.146,0.026
686,3,AVL,6,0.729,0.363,0.339,0.132
687,3,AVL,7,-0.162,0.721,0.689,0.52
688,3,AVL,8,0.829,0.276,0.192,0.076
689,3,AVL,9,0.523,0.342,0.197,0.117
690,3,AVL,10,0.892,0.254,0.227,0.064
691,3,AVL,11,0.709,0.239,0.158,0.057
692,3,AVL,12,0.545,0.347,0.304,0.12
693,3,AVL,13,0.551,0.218,0.17,0.048
694,3,AVL,14,0.965,0.08,0.063,0.006
695,3,AVL,15,0.822,0.203,0.147,0.041
696,3,AVL,16,0.84,0.254,0.23,0.064
697,3,AVF,0,0.548,0.386,0.325,0.149
698,3,AVF,1,0.829,0.188,0.141,0.035
699,3,AVF,2,0.647,0.302,0.24,0.091
700,3,AVF,3,0.589,0.374,0.294,0.14
701,3,AVF,4,0.898,0.208,0.182,0.043
702,3,AVF,5,0.558,0.324,0.265,0.105
703,3,AVF,6,0.467,0.307,0.25,0.094
704,3,AVF,7,0.359,0.306,0.263,0.093
705,3,AVF,8,0.824,0.185,0.134,0.034
706,3,AVF,9,0.493,0.301,0.194,0.091
707,3,AVF,10,0.897,0.246,0.225,0.061
708,3,AVF,11,0.819,0.192,0.135,0.037
709,3,AVF,12,0.919,0.195,0.161,0.038
710,3,AVF,13,0.683,0.273,0.214,0.075
711,3,AVF,14,0.168,0.489,0.451,0.239
712,3,AVF,15,0.761,0.202,0.144,0.041
713,3,AVF,16,0.706,0.186,0.127,0.035
714,3,V1,0,0.592,0.351,0.279,0.123
715,3,V1,1,0.538,0.282,0.173,0.079
716,3,V1,2,0.774,0.191,0.157,0.037
717,3,V1,3,0.879,0.197,0.17,0.039
718,3,V1,4,0.333,0.5,0.436,0.25
719,3,V1,5,0.749,0.201,0.182,0.04
720,3,V1,6,0.951,0.075,0.057,0.006
721,3,V1,7,-0.046,0.613,0.583,0.376
722,3,V1,8,0.872,0.23,0.195,0.053
723,3,V1,9,0.849,0.206,0.165,0.042
724,3,V1,10,0.882,0.238,0.168,0.057
725,3,V1,11,0.934,0.131,0.1,0.017
726,3,V1,12,0.782,0.161,0.121,0.026
727,3,V1,13,0.868,0.216,0.183,0.047
728,3,V1,14,0.888,0.176,0.151,0.031
729,3,V1,15,0.871,0.139,0.102,0.019
730,3,V1,16,0.943,0.238,0.226,0.056
731,3,V2,0,0.618,0.392,0.337,0.154
732,3,V2,1,0.627,0.455,0.339,0.207
733,3,V2,2,0.622,0.388,0.338,0.151
734,3,V2,3,0.864,0.137,0.087,0.019
735,3,V2,4,0.583,0.265,0.22,0.07
736,3,V2,5,0.192,0.813,0.797,0.66
737,3,V2,6,0.868,0.13,0.097,0.017
738,3,V2,7,0.928,0.137,0.111,0.019
739,3,V2,8,0.781,0.244,0.19,0.06
740,3,V2,9,0.406,0.456,0.318,0.208
741,3,V2,10,0.854,0.249,0.155,0.062
742,3,V2,11,0.846,0.225,0.169,0.051
743,3,V2,12,0.055,1.001,0.99,1.002
744,3,V2,13,0.807,0.203,0.159,0.041
745,3,V2,14,0.874,0.104,0.071,0.011
746,3,V2,15,0.571,0.228,0.166,0.052
747,3,V2,16,0.699,0.41,0.393,0.168
748,3,V3,0,0.437,0.442,0.389,0.196
749,3,V3,1,0.467,0.489,0.377,0.239
750,3,V3,2,0.869,0.131,0.104,0.017
751,3,V3,3,0.736,0.206,0.141,0.043
752,3,V3,4,0.81,0.253,0.179,0.064
753,3,V3,5,0.632,0.628,0.613,0.395
754,3,V3,6,0.901,0.109,0.084,0.012
755,3,V3,7,0.903,0.18,0.169,0.032
756,3,V3,8,0.622,0.397,0.306,0.157
757,3,V3,9,0.625,0.319,0.23,0.101
758,3,V3,10,0.819,0.265,0.191,0.07
759,3,V3,11,0.657,0.361,0.274,0.131
760,3,V3,12,0.356,0.744,0.736,0.554
761,3,V3,13,0.814,0.213,0.177,0.045
762,3,V3,14,0.745,0.141,0.109,0.02
763,3,V3,15,0.291,0.458,0.376,0.21
764,3,V3,16,0.71,0.27,0.232,0.073
765,3,V4,0,0.31,0.335,0.239,0.112
766,3,V4,1,0.829,0.227,0.179,0.051
767,3,V4,2,0.824,0.19,0.163,0.036
768,3,V4,3,0.685,0.282,0.196,0.079
769,3,V4,4,0.81,0.227,0.145,0.052
770,3,V4,5,0.891,0.366,0.351,0.134
771,3,V4,6,0.961,0.087,0.074,0.008
772,3,V4,7,0.915,0.114,0.096,0.013
773,3,V4,8,0.746,0.31,0.252,0.096
774,3,V4,9,0.831,0.178,0.147,0.032
775,3,V4,10,0.614,0.411,0.363,0.169
776,3,V4,11,0.763,0.302,0.237,0.091
777,3,V4,12,0.741,0.386,0.373,0.149
778,3,V4,13,0.859,0.143,0.111,0.021
779,3,V4,14,0.74,0.179,0.148,0.032
780,3,V4,15,0.565,0.192,0.149,0.037
781,3,V4,16,0.589,0.579,0.567,0.335
782,3,V5,0,0.521,0.318,0.259,0.101
783,3,V5,1,0.934,0.101,0.075,0.01
784,3,V5,2,0.82,0.206,0.174,0.042
785,3,V5,3,0.933,0.169,0.155,0.028
786,3,V5,4,-0.376,0.718,0.669,0.516
787,3,V5,5,0.688,0.209,0.176,0.044
788,3,V5,6,0.991,0.032,0.023,0.001
789,3,V5,7,0.981,0.04,0.028,0.002
790,3,V5,8,0.401,0.348,0.259,0.121
791,3,V5,9,0.76,0.273,0.226,0.075
792,3,V5,10,-0.373,0.671,0.613,0.45
793,3,V5,11,0.926,0.096,0.069,0.009
794,3,V5,12,0.858,0.246,0.221,0.06
795,3,V5,13,0.79,0.305,0.27,0.093
796,3,V5,14,0.78,0.254,0.218,0.065
797,3,V5,15,0.883,0.13,0.091,0.017
798,3,V5,16,0.877,0.133,0.117,0.018
799,3,V6,0,0.387,0.428,0.371,0.183
800,3,V6,1,0.981,0.055,0.041,0.003
801,3,V6,2,0.725,0.308,0.263,0.095
802,3,V6,3,0.529,0.316,0.254,0.1
803,3,V6,4,0.136,0.677,0.628,0.458
804,3,V6,5,0.664,0.252,0.199,0.063
805,3,V6,6,0.972,0.055,0.046,0.003
806,3,V6,7,0.888,0.162,0.141,0.026
807,3,V6,8,0.768,0.212,0.168,0.045
808,3,V6,9,0.702,0.339,0.282,0.115
809,3,V6,10,0.81,0.344,0.27,0.118
810,3,V6,11,0.558,0.372,0.278,0.139
811,3,V6,12,0.866,0.194,0.161,0.038
812,3,V6,13,0.927,0.105,0.082,0.011
813,3,V6,14,0.35,0.693,0.601,0.48
814,3,V6,15,0.883,0.127,0.102,0.016
815,3,V6,16,0.962,0.06,0.038,0.004
816,4,I,0,0.863,0.137,0.103,0.019
817,4,I,1,0.892,0.189,0.148,0.036
818,4,I,2,0.441,0.204,0.12,0.042
819,4,I,3,0.899,0.33,0.321,0.109
820,4,I,4,0.86,0.15,0.104,0.023
821,4,I,5,0.561,0.476,0.433,0.227
822,4,I,6,0.69,0.277,0.227,0.077
823,4,I,7,0.923,0.084,0.066,0.007
824,4,I,8,0.725,0.226,0.183,0.051
825,4,I,9,0.92,0.165,0.143,0.027
826,4,I,10,0.847,0.207,0.152,0.043
827,4,I,11,0.821,0.182,0.15,0.033
828,4,I,12,0.885,0.126,0.099,0.016
829,4,I,13,0.932,0.136,0.11,0.018
830,4,I,14,0.541,0.404,0.349,0.163
831,4,I,15,0.782,0.185,0.117,0.034
832,4,I,16,0.883,0.165,0.129,0.027
833,4,II,0,0.927,0.124,0.091,0.015
834,4,II,1,0.389,0.415,0.28,0.172
835,4,II,2,0.965,0.087,0.064,0.007
836,4,II,3,0.966,0.066,0.044,0.004
837,4,II,4,0.889,0.137,0.097,0.019
838,4,II,5,0.936,0.187,0.154,0.035
839,4,II,6,0.577,0.341,0.278,0.116
840,4,II,7,0.942,0.173,0.16,0.03
841,4,II,8,0.878,0.166,0.13,0.027
842,4,II,9,0.902,0.134,0.104,0.018
843,4,II,10,0.533,0.294,0.184,0.087
844,4,II,11,0.799,0.204,0.175,0.042
845,4,II,12,0.569,0.571,0.546,0.326
846,4,II,13,0.628,0.327,0.252,0.107
847,4,II,14,0.95,0.114,0.091,0.013
848,4,II,15,0.178,0.472,0.329,0.223
849,4,II,16,0.929,0.2,0.182,0.04
850,4,III,0,0.871,0.15,0.095,0.023
851,4,III,1,-0.505,0.774,0.725,0.6
852,4,III,2,0.945,0.146,0.126,0.021
853,4,III,3,0.583,0.563,0.547,0.317
854,4,III,4,0.209,0.479,0.409,0.23
855,4,III,5,0.9,0.36,0.343,0.13
856,4,III,6,0.819,0.464,0.437,0.215
857,4,III,7,0.219,0.507,0.469,0.257
858,4,III,8,0.468,0.339,0.26,0.115
859,4,III,9,-0.234,0.628,0.572,0.394
860,4,III,10,0.605,0.347,0.254,0.121
861,4,III,11,0.393,0.233,0.183,0.054
862,4,III,12,0.251,0.532,0.511,0.283
863,4,III,13,0.274,0.621,0.597,0.385
864,4,III,14,0.763,0.323,0.289,0.105
865,4,III,15,0.391,0.412,0.262,0.169
866,4,III,16,0.129,0.636,0.62,0.404
867,4,AVR,0,0.913,0.121,0.095,0.015
868,4,AVR,1,0.804,0.252,0.178,0.063
869,4,AVR,2,0.962,0.117,0.092,0.014
870,4,AVR,3,0.93,0.231,0.223,0.053
871,4,AVR,4,0.906,0.134,0.102,0.018
872,4,AVR,5,0.779,0.352,0.278,0.124
873,4,AVR,6,0.66,0.271,0.213,0.073
874,4,AVR,7,0.983,0.045,0.034,0.002
875,4,AVR,8,0.885,0.131,0.095,0.017
876,4,AVR,9,0.928,0.13,0.105,0.017
877,4,AVR,10,0.717,0.302,0.223,0.091
878,4,AVR,11,0.831,0.208,0.172,0.043
879,4,AVR,12,0.781,0.257,0.218,0.066
880,4,AVR,13,0.898,0.146,0.111,0.021
881,4,AVR,14,0.938,0.211,0.193,0.045
882,4,AVR,15,0.477,0.4,0.302,0.16
883,4,AVR,16,0.979,0.055,0.041,0.003
884,4,AVL,0,0.783,0.216,0.16,0.047
885,4,AVL,1,0.589,0.444,0.39,0.197
886,4,AVL,2,0.861,0.318,0.301,0.101
887,4,AVL,3,0.766,0.432,0.413,0.186
888,4,AVL,4,0.525,0.314,0.263,0.099
889,4,AVL,5,0.611,0.594,0.575,0.353
890,4,AVL,6,0.745,0.413,0.384,0.17
891,4,AVL,7,0.628,0.168,0.133,0.028
892,4,AVL,8,0.191,0.426,0.34,0.182
893,4,AVL,9,0.703,0.445,0.421,0.198
894,4,AVL,10,0.812,0.219,0.155,0.048
895,4,AVL,11,0.039,0.371,0.287,0.138
896,4,AVL,12,0.823,0.282,0.257,0.08
897,4,AVL,13,0.839,0.338,0.316,0.114
898,4,AVL,14,-0.067,0.59,0.544,0.348
899,4,AVL,15,0.737,0.211,0.141,0.045
900,4,AVL,16,-0.27,0.461,0.387,0.212
901,4,AVF,0,0.916,0.135,0.094,0.018
902,4,AVF,1,-0.328,0.604,0.526,0.365
903,4,AVF,2,0.969,0.075,0.058,0.006
904,4,AVF,3,0.864,0.366,0.351,0.134
905,4,AVF,4,0.733,0.248,0.182,0.062
906,4,AVF,5,0.99,0.048,0.03,0.002
907,4,AVF,6,0.632,0.447,0.405,0.2
908,4,AVF,7,0.754,0.376,0.353,0.141
909,4,AVF,8,0.759,0.231,0.178,0.054
910,4,AVF,9,0.738,0.21,0.174,0.044
911,4,AVF,10,0.532,0.325,0.199,0.105
912,4,AVF,11,0.718,0.196,0.171,0.038
913,4,AVF,12,0.105,0.721,0.705,0.52
914,4,AVF,13,-0.014,0.57,0.531,0.325
915,4,AVF,14,0.908,0.132,0.107,0.017
916,4,AVF,15,0.196,0.531,0.353,0.282
917,4,AVF,16,0.802,0.416,0.401,0.173
918,4,V1,0,0.869,0.164,0.122,0.027
919,4,V1,1,0.55,0.436,0.354,0.19
920,4,V1,2,0.363,0.471,0.452,0.222
921,4,V1,3,0.779,0.191,0.151,0.037
922,4,V1,4,0.809,0.164,0.109,0.027
923,4,V1,5,0.866,0.141,0.1,0.02
924,4,V1,6,0.795,0.36,0.339,0.13
925,4,V1,7,0.742,0.14,0.1,0.019
926,4,V1,8,0.667,0.232,0.177,0.054
927,4,V1,9,0.984,0.05,0.037,0.002
928,4,V1,10,0.651,0.234,0.175,0.055
929,4,V1,11,0.839,0.132,0.112,0.018
930,4,V1,12,0.885,0.167,0.149,0.028
931,4,V1,13,0.955,0.097,0.073,0.009
932,4,V1,14,0.885,0.236,0.213,0.056
933,4,V1,15,0.827,0.194,0.155,0.038
934,4,V1,16,0.884,0.134,0.094,0.018
935,4,V2,0,0.88,0.139,0.105,0.019
936,4,V2,1,-0.032,0.686,0.63,0.47
937,4,V2,2,0.74,0.414,0.396,0.171
938,4,V2,3,0.966,0.085,0.061,0.007
939,4,V2,4,0.835,0.155,0.128,0.024
940,4,V2,5,0.958,0.09,0.064,0.008
941,4,V2,6,0.648,0.205,0.147,0.042
942,4,V2,7,0.805,0.216,0.191,0.047
943,4,V2,8,0.501,0.262,0.193,0.069
944,4,V2,9,0.933,0.184,0.165,0.034
945,4,V2,10,0.874,0.131,0.102,0.017
946,4,V2,11,0.888,0.146,0.122,0.021
947,4,V2,12,0.939,0.287,0.276,0.082
948,4,V2,13,0.985,0.053,0.043,0.003
949,4,V2,14,0.881,0.217,0.198,0.047
950,4,V2,15,0.794,0.274,0.233,0.075
951,4,V2,16,0.712,0.16,0.099,0.025
952,4,V3,0,0.824,0.253,0.209,0.064
953,4,V3,1,-0.761,1.01,0.959,1.021
954,4,V3,2,0.402,0.416,0.391,0.173
955,4,V3,3,0.965,0.096,0.083,0.009
956,4,V3,4,0.73,0.312,0.296,0.097
957,4,V3,5,0.904,0.264,0.251,0.07
958,4,V3,6,0.87,0.163,0.128,0.027
959,4,V3,7,0.762,0.219,0.166,0.048
960,4,V3,8,0.543,0.486,0.428,0.236
961,4,V3,9,0.776,0.193,0.14,0.037
962,4,V3,10,0.906,0.16,0.128,0.025
963,4,V3,11,0.886,0.254,0.24,0.065
964,4,V3,12,0.988,0.049,0.033,0.002
965,4,V3,13,0.889,0.254,0.246,0.065
966,4,V3,14,0.945,0.112,0.085,0.012
967,4,V3,15,0.57,0.298,0.198,0.089
968,4,V3,16,0.535,0.286,0.246,0.082
969,4,V4,0,0.865,0.167,0.138,0.028
970,4,V4,1,0.989,0.084,0.071,0.007
971,4,V4,2,0.716,0.181,0.12,0.033
972,4,V4,3,0.99,0.037,0.026,0.001
973,4,V4,4,0.828,0.358,0.347,0.128
974,4,V4,5,0.804,0.343,0.33,0.118
975,4,V4,6,0.87,0.147,0.117,0.022
976,4,V4,7,0.465,0.231,0.173,0.053
977,4,V4,8,0.7,0.32,0.261,0.103
978,4,V4,9,0.82,0.259,0.229,0.067
979,4,V4,10,0.86,0.181,0.143,0.033
980,4,V4,11,0.987,0.042,0.032,0.002
981,4,V4,12,0.91,0.234,0.207,0.055
982,4,V4,13,0.519,0.505,0.486,0.256
983,4,V4,14,0.97,0.085,0.068,0.007
984,4,V4,15,0.272,0.6,0.501,0.361
985,4,V4,16,0.789,0.324,0.303,0.105
986,4,V5,0,0.927,0.111,0.087,0.012
987,4,V5,1,0.98,0.095,0.073,0.009
988,4,V5,2,0.8,0.184,0.124,0.034
989,4,V5,3,0.989,0.039,0.027,0.002
990,4,V5,4,0.906,0.192,0.173,0.037
991,4,V5,5,0.792,0.335,0.314,0.112
992,4,V5,6,0.973,0.08,0.051,0.006
993,4,V5,7,0.716,0.154,0.128,0.024
994,4,V5,8,0.885,0.171,0.137,0.029
995,4,V5,9,0.917,0.124,0.098,0.015
996,4,V5,10,0.804,0.19,0.147,0.036
997,4,V5,11,0.843,0.159,0.132,0.025
998,4,V5,12,0.867,0.21,0.183,0.044
999,4,V5,13,0.499,0.491,0.434,0.241
1000,4,V5,14,0.987,0.048,0.035,0.002
1001,4,V5,15,0.507,0.44,0.363,0.194
1002,4,V5,16,0.91,0.327,0.318,0.107
1003,4,V6,0,0.944,0.089,0.064,0.008
1004,4,V6,1,0.946,0.152,0.116,0.023
1005,4,V6,2,0.899,0.159,0.115,0.025
1006,4,V6,3,0.986,0.064,0.05,0.004
1007,4,V6,4,0.909,0.11,0.076,0.012
1008,4,V6,5,0.846,0.188,0.14,0.035
1009,4,V6,6,0.867,0.211,0.164,0.044
1010,4,V6,7,0.807,0.128,0.101,0.016
1011,4,V6,8,0.922,0.118,0.089,0.014
1012,4,V6,9,0.945,0.089,0.071,0.008
1013,4,V6,10,0.697,0.289,0.229,0.083
1014,4,V6,11,0.771,0.252,0.216,0.064
1015,4,V6,12,0.919,0.104,0.068,0.011
1016,4,V6,13,0.71,0.213,0.155,0.045
1017,4,V6,14,0.975,0.069,0.048,0.005
1018,4,V6,15,0.652,0.357,0.296,0.128
1019,4,V6,16,0.881,0.153,0.126,0.024
1020,5,I,0,0.916,0.159,0.135,0.025
1021,5,I,1,0.761,0.194,0.138,0.038
1022,5,I,2,0.947,0.079,0.064,0.006
1023,5,I,3,0.963,0.115,0.099,0.013
1024,5,I,4,0.772,0.176,0.15,0.031
1025,5,I,5,0.797,0.22,0.185,0.049
1026,5,I,6,0.706,0.279,0.247,0.078
1027,5,I,7,0.9,0.129,0.091,0.017
1028,5,I,8,0.907,0.111,0.084,0.012
1029,5,I,9,0.845,0.184,0.151,0.034
1030,5,I,10,0.879,0.16,0.125,0.026
1031,5,I,11,0.953,0.151,0.13,0.023
1032,5,I,12,0.974,0.063,0.049,0.004
1033,5,I,13,0.955,0.083,0.062,0.007
1034,5,I,14,0.545,0.32,0.281,0.103
1035,5,I,15,0.802,0.179,0.123,0.032
1036,5,I,16,0.945,0.207,0.198,0.043
1037,5,II,0,0.984,0.05,0.038,0.003
1038,5,II,1,0.49,0.351,0.292,0.123
1039,5,II,2,0.57,0.354,0.317,0.125
1040,5,II,3,0.994,0.038,0.03,0.001
1041,5,II,4,0.889,0.184,0.147,0.034
1042,5,II,5,0.945,0.095,0.069,0.009
1043,5,II,6,0.578,0.449,0.41,0.201
1044,5,II,7,0.922,0.122,0.097,0.015
1045,5,II,8,0.812,0.124,0.088,0.015
1046,5,II,9,0.983,0.047,0.033,0.002
1047,5,II,10,0.952,0.19,0.174,0.036
1048,5,II,11,0.991,0.039,0.027,0.001
1049,5,II,12,0.803,0.203,0.156,0.041
1050,5,II,13,0.918,0.12,0.089,0.015
1051,5,II,14,0.546,0.506,0.471,0.256
1052,5,II,15,0.929,0.119,0.084,0.014
1053,5,II,16,0.889,0.128,0.107,0.016
1054,5,III,0,0.966,0.168,0.157,0.028
1055,5,III,1,0.22,0.371,0.297,0.138
1056,5,III,2,0.795,0.173,0.148,0.03
1057,5,III,3,0.668,0.448,0.435,0.2
1058,5,III,4,0.708,0.273,0.202,0.074
1059,5,III,5,0.859,0.152,0.124,0.023
1060,5,III,6,0.972,0.06,0.041,0.004
1061,5,III,7,0.813,0.174,0.109,0.03
1062,5,III,8,0.105,0.343,0.248,0.118
1063,5,III,9,0.731,0.278,0.246,0.077
1064,5,III,10,0.47,0.594,0.573,0.352
1065,5,III,11,0.288,0.35,0.3,0.123
1066,5,III,12,0.679,0.3,0.211,0.09
1067,5,III,13,0.627,0.292,0.21,0.085
1068,5,III,14,-0.45,0.773,0.749,0.598
1069,5,III,15,0.161,0.293,0.225,0.086
1070,5,III,16,0.214,0.304,0.26,0.092
1071,5,AVR,0,0.972,0.068,0.052,0.005
1072,5,AVR,1,0.611,0.238,0.188,0.057
1073,5,AVR,2,0.863,0.141,0.106,0.02
1074,5,AVR,3,0.991,0.051,0.041,0.003
1075,5,AVR,4,0.863,0.2,0.163,0.04
1076,5,AVR,5,0.885,0.142,0.103,0.02
1077,5,AVR,6,0.576,0.428,0.397,0.184
1078,5,AVR,7,0.916,0.117,0.087,0.014
1079,5,AVR,8,0.932,0.087,0.066,0.008
1080,5,AVR,9,0.899,0.185,0.165,0.034
1081,5,AVR,10,0.958,0.13,0.109,0.017
1082,5,AVR,11,0.981,0.136,0.128,0.019
1083,5,AVR,12,0.91,0.144,0.115,0.021
1084,5,AVR,13,0.961,0.075,0.059,0.006
1085,5,AVR,14,0.763,0.337,0.304,0.114
1086,5,AVR,15,0.887,0.177,0.133,0.031
1087,5,AVR,16,0.981,0.052,0.04,0.003
1088,5,AVL,0,0.616,0.482,0.463,0.232
1089,5,AVL,1,0.701,0.187,0.138,0.035
1090,5,AVL,2,0.988,0.041,0.028,0.002
1091,5,AVL,3,0.03,0.477,0.417,0.227
1092,5,AVL,4,0.363,0.331,0.265,0.109
1093,5,AVL,5,0.731,0.203,0.148,0.041
1094,5,AVL,6,0.881,0.201,0.181,0.04
1095,5,AVL,7,0.856,0.137,0.096,0.019
1096,5,AVL,8,0.627,0.203,0.132,0.041
1097,5,AVL,9,0.83,0.199,0.166,0.04
1098,5,AVL,10,0.018,0.652,0.626,0.425
1099,5,AVL,11,0.779,0.189,0.133,0.036
1100,5,AVL,12,0.887,0.177,0.133,0.031
1101,5,AVL,13,0.531,0.415,0.314,0.173
1102,5,AVL,14,-0.483,0.762,0.735,0.58
1103,5,AVL,15,0.504,0.25,0.182,0.063
1104,5,AVL,16,0.707,0.293,0.271,0.086
1105,5,AVF,0,0.986,0.047,0.036,0.002
1106,5,AVF,1,0.123,0.37,0.272,0.137
1107,5,AVF,2,0.471,0.414,0.379,0.171
1108,5,AVF,3,0.975,0.114,0.103,0.013
1109,5,AVF,4,0.87,0.254,0.212,0.065
1110,5,AVF,5,0.972,0.06,0.044,0.004
1111,5,AVF,6,0.832,0.227,0.197,0.052
1112,5,AVF,7,0.876,0.165,0.115,0.027
1113,5,AVF,8,0.431,0.188,0.12,0.035
1114,5,AVF,9,0.745,0.346,0.325,0.12
1115,5,AVF,10,0.898,0.344,0.327,0.118
1116,5,AVF,11,0.93,0.22,0.208,0.048
1117,5,AVF,12,0.66,0.341,0.242,0.116
1118,5,AVF,13,0.836,0.191,0.14,0.036
1119,5,AVF,14,0.199,0.661,0.634,0.437
1120,5,AVF,15,0.776,0.281,0.244,0.079
1121,5,AVF,16,0.596,0.264,0.239,0.07
1122,5,V1,0,0.972,0.09,0.075,0.008
1123,5,V1,1,0.642,0.291,0.227,0.084
1124,5,V1,2,0.829,0.15,0.125,0.022
1125,5,V1,3,0.955,0.168,0.154,0.028
1126,5,V1,4,0.734,0.162,0.114,0.026
1127,5,V1,5,0.686,0.221,0.191,0.049
1128,5,V1,6,0.657,0.217,0.171,0.047
1129,5,V1,7,0.933,0.136,0.109,0.018
1130,5,V1,8,0.82,0.22,0.165,0.049
1131,5,V1,9,0.843,0.132,0.08,0.017
1132,5,V1,10,0.97,0.174,0.163,0.03
1133,5,V1,11,0.927,0.196,0.177,0.038
1134,5,V1,12,0.899,0.111,0.08,0.012
1135,5,V1,13,0.936,0.091,0.07,0.008
1136,5,V1,14,0.745,0.285,0.25,0.081
1137,5,V1,15,0.842,0.202,0.17,0.041
1138,5,V1,16,0.87,0.109,0.072,0.012
1139,5,V2,0,0.968,0.113,0.1,0.013
1140,5,V2,1,0.969,0.072,0.054,0.005
1141,5,V2,2,0.474,0.279,0.211,0.078
1142,5,V2,3,0.78,0.268,0.243,0.072
1143,5,V2,4,0.825,0.183,0.134,0.033
1144,5,V2,5,0.872,0.21,0.191,0.044
1145,5,V2,6,0.9,0.23,0.203,0.053
1146,5,V2,7,0.919,0.114,0.09,0.013
1147,5,V2,8,0.814,0.236,0.174,0.056
1148,5,V2,9,0.537,0.423,0.376,0.179
1149,5,V2,10,0.978,0.062,0.049,0.004
1150,5,V2,11,0.94,0.114,0.069,0.013
1151,5,V2,12,0.905,0.148,0.11,0.022
1152,5,V2,13,0.897,0.119,0.076,0.014
1153,5,V2,14,0.657,0.355,0.334,0.126
1154,5,V2,15,0.935,0.105,0.071,0.011
1155,5,V2,16,0.896,0.117,0.083,0.014
1156,5,V3,0,0.881,0.178,0.155,0.032
1157,5,V3,1,0.811,0.244,0.205,0.059
1158,5,V3,2,0.657,0.559,0.54,0.313
1159,5,V3,3,0.448,0.367,0.318,0.135
1160,5,V3,4,0.916,0.291,0.272,0.085
1161,5,V3,5,0.855,0.218,0.185,0.047
1162,5,V3,6,0.815,0.256,0.225,0.066
1163,5,V3,7,0.715,0.354,0.292,0.125
1164,5,V3,8,0.818,0.228,0.163,0.052
1165,5,V3,9,0.703,0.535,0.522,0.286
1166,5,V3,10,0.966,0.071,0.056,0.005
1167,5,V3,11,0.933,0.145,0.124,0.021
1168,5,V3,12,0.785,0.254,0.194,0.065
1169,5,V3,13,0.892,0.123,0.088,0.015
1170,5,V3,14,0.659,0.315,0.283,0.099
1171,5,V3,15,0.979,0.06,0.039,0.004
1172,5,V3,16,0.938,0.079,0.057,0.006
1173,5,V4,0,0.941,0.105,0.087,0.011
1174,5,V4,1,0.594,0.377,0.343,0.142
1175,5,V4,2,0.684,0.437,0.409,0.191
1176,5,V4,3,0.893,0.303,0.293,0.092
1177,5,V4,4,0.978,0.122,0.114,0.015
1178,5,V4,5,0.817,0.141,0.091,0.02
1179,5,V4,6,0.686,0.239,0.193,0.057
1180,5,V4,7,0.844,0.21,0.16,0.044
1181,5,V4,8,0.744,0.185,0.12,0.034
1182,5,V4,9,0.852,0.276,0.252,0.076
1183,5,V4,10,0.94,0.105,0.072,0.011
1184,5,V4,11,0.962,0.183,0.177,0.033
1185,5,V4,12,0.816,0.229,0.181,0.052
1186,5,V4,13,0.745,0.223,0.162,0.05
1187,5,V4,14,0.391,0.298,0.213,0.089
1188,5,V4,15,0.971,0.065,0.046,0.004
1189,5,V4,16,0.947,0.076,0.062,0.006
1190,5,V5,0,0.966,0.11,0.094,0.012
1191,5,V5,1,0.56,0.361,0.323,0.13
1192,5,V5,2,0.797,0.403,0.381,0.163
1193,5,V5,3,0.965,0.181,0.172,0.033
1194,5,V5,4,0.991,0.036,0.026,0.001
1195,5,V5,5,0.738,0.171,0.102,0.029
1196,5,V5,6,0.657,0.211,0.149,0.044
1197,5,V5,7,0.805,0.152,0.119,0.023
1198,5,V5,8,0.753,0.214,0.174,0.046
1199,5,V5,9,0.903,0.209,0.19,0.043
1200,5,V5,10,0.935,0.201,0.184,0.041
1201,5,V5,11,0.979,0.069,0.054,0.005
1202,5,V5,12,0.917,0.123,0.098,0.015
1203,5,V5,13,0.956,0.073,0.057,0.005
1204,5,V5,14,0.893,0.108,0.057,0.012
1205,5,V5,15,0.953,0.08,0.061,0.006
1206,5,V5,16,0.967,0.063,0.051,0.004
1207,5,V6,0,0.975,0.102,0.089,0.01
1208,5,V6,1,0.588,0.279,0.223,0.078
1209,5,V6,2,0.807,0.235,0.202,0.055
1210,5,V6,3,0.98,0.135,0.125,0.018
1211,5,V6,4,0.953,0.225,0.214,0.051
1212,5,V6,5,0.83,0.175,0.131,0.03
1213,5,V6,6,0.544,0.255,0.211,0.065
1214,5,V6,7,0.938,0.108,0.08,0.012
1215,5,V6,8,0.939,0.089,0.062,0.008
1216,5,V6,9,0.877,0.145,0.11,0.021
1217,5,V6,10,0.887,0.148,0.119,0.022
1218,5,V6,11,0.972,0.089,0.072,0.008
1219,5,V6,12,0.957,0.067,0.052,0.004
1220,5,V6,13,0.922,0.105,0.077,0.011
1221,5,V6,14,0.623,0.458,0.419,0.21
1222,5,V6,15,0.925,0.107,0.086,0.012
1223,5,V6,16,0.97,0.12,0.106,0.014
1224,6,I,0,0.892,0.252,0.24,0.063
1225,6,I,1,0.853,0.164,0.118,0.027
1226,6,I,2,0.686,0.352,0.321,0.124
1227,6,I,3,0.939,0.16,0.112,0.026
1228,6,I,4,0.947,0.1,0.069,0.01
1229,6,I,5,0.944,0.085,0.06,0.007
1230,6,I,6,0.903,0.174,0.123,0.03
1231,6,I,7,0.89,0.113,0.08,0.013
1232,6,I,8,0.699,0.284,0.229,0.081
1233,6,I,9,0.917,0.213,0.189,0.045
1234,6,I,10,0.882,0.157,0.119,0.025
1235,6,I,11,0.908,0.13,0.109,0.017
1236,6,I,12,0.929,0.22,0.209,0.048
1237,6,I,13,0.898,0.129,0.097,0.017
1238,6,I,14,0.824,0.23,0.183,0.053
1239,6,I,15,0.888,0.191,0.172,0.036
1240,6,I,16,0.57,0.324,0.282,0.105
1241,6,II,0,0.604,0.657,0.631,0.432
1242,6,II,1,0.921,0.116,0.087,0.014
1243,6,II,2,0.254,0.551,0.523,0.303
1244,6,II,3,0.944,0.164,0.14,0.027
1245,6,II,4,0.875,0.179,0.137,0.032
1246,6,II,5,0.915,0.116,0.087,0.013
1247,6,II,6,0.905,0.172,0.127,0.03
1248,6,II,7,0.944,0.086,0.056,0.007
1249,6,II,8,0.701,0.201,0.145,0.04
1250,6,II,9,0.963,0.12,0.108,0.014
1251,6,II,10,0.903,0.179,0.135,0.032
1252,6,II,11,0.893,0.118,0.091,0.014
1253,6,II,12,0.841,0.308,0.293,0.095
1254,6,II,13,0.782,0.17,0.126,0.029
1255,6,II,14,0.755,0.211,0.152,0.045
1256,6,II,15,0.972,0.142,0.133,0.02
1257,6,II,16,0.874,0.286,0.256,0.082
1258,6,III,0,0.102,0.719,0.705,0.517
1259,6,III,1,0.963,0.095,0.075,0.009
1260,6,III,2,0.553,0.45,0.402,0.203
1261,6,III,3,0.978,0.093,0.081,0.009
1262,6,III,4,0.985,0.06,0.046,0.004
1263,6,III,5,0.097,0.449,0.373,0.202
1264,6,III,6,0.644,0.319,0.24,0.102
1265,6,III,7,0.294,0.32,0.222,0.102
1266,6,III,8,0.608,0.241,0.175,0.058
1267,6,III,9,0.967,0.179,0.165,0.032
1268,6,III,10,0.84,0.211,0.148,0.045
1269,6,III,11,0.583,0.393,0.371,0.155
1270,6,III,12,-0.332,0.5,0.472,0.25
1271,6,III,13,0.977,0.063,0.046,0.004
1272,6,III,14,0.937,0.067,0.045,0.004
1273,6,III,15,0.913,0.278,0.26,0.077
1274,6,III,16,0.305,0.488,0.444,0.238
1275,6,AVR,0,0.93,0.173,0.154,0.03
1276,6,AVR,1,0.872,0.148,0.107,0.022
1277,6,AVR,2,0.201,0.441,0.389,0.195
1278,6,AVR,3,0.791,0.19,0.143,0.036
1279,6,AVR,4,0.894,0.139,0.1,0.019
1280,6,AVR,5,0.946,0.087,0.063,0.008
1281,6,AVR,6,0.929,0.144,0.103,0.021
1282,6,AVR,7,0.967,0.061,0.04,0.004
1283,6,AVR,8,0.793,0.25,0.204,0.062
1284,6,AVR,9,0.937,0.156,0.137,0.024
1285,6,AVR,10,0.896,0.179,0.135,0.032
1286,6,AVR,11,0.91,0.13,0.108,0.017
1287,6,AVR,12,0.947,0.176,0.164,0.031
1288,6,AVR,13,0.856,0.147,0.115,0.022
1289,6,AVR,14,0.791,0.203,0.149,0.041
1290,6,AVR,15,0.948,0.204,0.195,0.042
1291,6,AVR,16,0.785,0.208,0.156,0.043
1292,6,AVL,0,0.663,0.527,0.516,0.278
1293,6,AVL,1,0.864,0.151,0.116,0.023
1294,6,AVL,2,0.716,0.336,0.296,0.113
1295,6,AVL,3,0.961,0.098,0.068,0.01
1296,6,AVL,4,0.973,0.086,0.069,0.007
1297,6,AVL,5,0.673,0.196,0.156,0.038
1298,6,AVL,6,0.684,0.217,0.165,0.047
1299,6,AVL,7,0.373,0.285,0.196,0.081
1300,6,AVL,8,0.668,0.21,0.149,0.044
1301,6,AVL,9,0.88,0.185,0.151,0.034
1302,6,AVL,10,0.839,0.189,0.123,0.036
1303,6,AVL,11,0.829,0.203,0.174,0.041
1304,6,AVL,12,0.461,0.244,0.17,0.059
1305,6,AVL,13,0.949,0.092,0.069,0.009
1306,6,AVL,14,0.901,0.153,0.132,0.024
1307,6,AVL,15,0.249,0.417,0.378,0.174
1308,6,AVL,16,0.324,0.364,0.316,0.132
1309,6,AVF,0,-0.029,0.778,0.755,0.606
1310,6,AVF,1,0.94,0.115,0.086,0.013
1311,6,AVF,2,0.395,0.48,0.434,0.231
1312,6,AVF,3,0.979,0.072,0.058,0.005
1313,6,AVF,4,0.965,0.081,0.061,0.007
1314,6,AVF,5,0.794,0.239,0.196,0.057
1315,6,AVF,6,0.826,0.236,0.173,0.056
1316,6,AVF,7,0.807,0.182,0.124,0.033
1317,6,AVF,8,0.6,0.225,0.16,0.051
1318,6,AVF,9,0.989,0.044,0.03,0.002
1319,6,AVF,10,0.92,0.16,0.121,0.026
1320,6,AVF,11,0.769,0.123,0.087,0.015
1321,6,AVF,12,0.51,0.526,0.51,0.277
1322,6,AVF,13,0.798,0.234,0.188,0.055
1323,6,AVF,14,0.848,0.127,0.089,0.016
1324,6,AVF,15,0.983,0.051,0.038,0.003
1325,6,AVF,16,0.714,0.41,0.371,0.168
1326,6,V1,0,0.898,0.14,0.102,0.02
1327,6,V1,1,0.744,0.203,0.151,0.041
1328,6,V1,2,0.952,0.186,0.17,0.035
1329,6,V1,3,0.872,0.316,0.29,0.1
1330,6,V1,4,0.739,0.173,0.145,0.03
1331,6,V1,5,0.797,0.164,0.097,0.027
1332,6,V1,6,0.753,0.25,0.22,0.063
1333,6,V1,7,0.707,0.361,0.228,0.13
1334,6,V1,8,0.849,0.182,0.13,0.033
1335,6,V1,9,0.905,0.163,0.136,0.026
1336,6,V1,10,0.815,0.168,0.13,0.028
1337,6,V1,11,0.82,0.204,0.17,0.042
1338,6,V1,12,0.558,0.282,0.238,0.08
1339,6,V1,13,0.775,0.192,0.141,0.037
1340,6,V1,14,0.738,0.348,0.313,0.121
1341,6,V1,15,0.856,0.142,0.092,0.02
1342,6,V1,16,0.851,0.183,0.147,0.034
1343,6,V2,0,0.692,0.363,0.347,0.132
1344,6,V2,1,0.442,0.312,0.25,0.097
1345,6,V2,2,0.984,0.054,0.043,0.003
1346,6,V2,3,0.798,0.417,0.395,0.174
1347,6,V2,4,0.503,0.311,0.244,0.097
1348,6,V2,5,0.745,0.254,0.213,0.064
1349,6,V2,6,0.951,0.119,0.092,0.014
1350,6,V2,7,0.845,0.139,0.096,0.019
1351,6,V2,8,0.814,0.166,0.1,0.028
1352,6,V2,9,0.862,0.187,0.164,0.035
1353,6,V2,10,0.558,0.297,0.181,0.088
1354,6,V2,11,0.466,0.526,0.51,0.276
1355,6,V2,12,0.975,0.058,0.042,0.003
1356,6,V2,13,0.786,0.24,0.224,0.058
1357,6,V2,14,0.477,0.451,0.413,0.203
1358,6,V2,15,0.946,0.179,0.165,0.032
1359,6,V2,16,0.973,0.068,0.053,0.005
1360,6,V3,0,0.787,0.379,0.371,0.144
1361,6,V3,1,0.601,0.292,0.245,0.085
1362,6,V3,2,0.933,0.141,0.107,0.02
1363,6,V3,3,0.793,0.43,0.413,0.185
1364,6,V3,4,0.931,0.228,0.202,0.052
1365,6,V3,5,0.887,0.117,0.093,0.014
1366,6,V3,6,0.877,0.196,0.159,0.038
1367,6,V3,7,0.819,0.176,0.13,0.031
1368,6,V3,8,0.735,0.262,0.213,0.069
1369,6,V3,9,0.804,0.174,0.142,0.03
1370,6,V3,10,0.764,0.29,0.223,0.084
1371,6,V3,11,0.097,0.768,0.753,0.591
1372,6,V3,12,0.89,0.191,0.173,0.037
1373,6,V3,13,0.83,0.141,0.106,0.02
1374,6,V3,14,0.181,0.654,0.63,0.428
1375,6,V3,15,0.89,0.17,0.147,0.029
1376,6,V3,16,0.948,0.116,0.093,0.014
1377,6,V4,0,0.921,0.125,0.103,0.016
1378,6,V4,1,0.661,0.239,0.182,0.057
1379,6,V4,2,0.782,0.314,0.274,0.098
1380,6,V4,3,0.591,0.505,0.488,0.255
1381,6,V4,4,0.917,0.097,0.068,0.009
1382,6,V4,5,0.94,0.196,0.183,0.039
1383,6,V4,6,0.809,0.315,0.269,0.099
1384,6,V4,7,0.814,0.185,0.148,0.034
1385,6,V4,8,0.744,0.214,0.161,0.046
1386,6,V4,9,0.801,0.132,0.105,0.017
1387,6,V4,10,0.851,0.161,0.117,0.026
1388,6,V4,11,0.983,0.044,0.033,0.002
1389,6,V4,12,0.731,0.254,0.218,0.064
1390,6,V4,13,0.794,0.18,0.14,0.032
1391,6,V4,14,-0.246,0.874,0.855,0.764
1392,6,V4,15,0.954,0.072,0.053,0.005
1393,6,V4,16,0.882,0.203,0.182,0.041
1394,6,V5,0,0.989,0.038,0.026,0.001
1395,6,V5,1,0.69,0.211,0.18,0.045
1396,6,V5,2,-0.016,0.596,0.568,0.355
1397,6,V5,3,0.162,0.511,0.473,0.261
1398,6,V5,4,0.932,0.108,0.088,0.012
1399,6,V5,5,0.988,0.043,0.028,0.002
1400,6,V5,6,0.865,0.247,0.193,0.061
1401,6,V5,7,0.944,0.101,0.078,0.01
1402,6,V5,8,0.802,0.182,0.134,0.033
1403,6,V5,9,0.871,0.148,0.12,0.022
1404,6,V5,10,0.913,0.109,0.079,0.012
1405,6,V5,11,0.98,0.129,0.121,0.017
1406,6,V5,12,0.801,0.181,0.132,0.033
1407,6,V5,13,0.828,0.133,0.096,0.018
1408,6,V5,14,0.571,0.225,0.131,0.051
1409,6,V5,15,0.959,0.075,0.057,0.006
1410,6,V5,16,0.85,0.173,0.137,0.03
1411,6,V6,0,0.798,0.17,0.126,0.029
1412,6,V6,1,0.683,0.282,0.244,0.08
1413,6,V6,2,0.177,0.378,0.279,0.143
1414,6,V6,3,0.375,0.377,0.316,0.142
1415,6,V6,4,0.896,0.129,0.09,0.017
1416,6,V6,5,0.964,0.077,0.047,0.006
1417,6,V6,6,0.733,0.341,0.288,0.117
1418,6,V6,7,0.767,0.163,0.118,0.027
1419,6,V6,8,0.903,0.141,0.089,0.02
1420,6,V6,9,0.807,0.172,0.134,0.03
1421,6,V6,10,0.907,0.112,0.089,0.013
1422,6,V6,11,0.971,0.152,0.14,0.023
1423,6,V6,12,0.905,0.255,0.246,0.065
1424,6,V6,13,0.802,0.174,0.132,0.03
1425,6,V6,14,0.725,0.215,0.143,0.046
1426,6,V6,15,0.957,0.084,0.06,0.007
1427,6,V6,16,0.829,0.173,0.124,0.03
1428,7,I,0,0.858,0.143,0.098,0.02
1429,7,I,1,0.655,0.259,0.188,0.067
1430,7,I,2,0.749,0.234,0.175,0.055
1431,7,I,3,0.897,0.124,0.095,0.015
1432,7,I,4,0.809,0.154,0.122,0.024
1433,7,I,5,0.898,0.113,0.083,0.013
1434,7,I,6,0.933,0.109,0.079,0.012
1435,7,I,7,0.832,0.165,0.126,0.027
1436,7,I,8,0.74,0.28,0.247,0.078
1437,7,I,9,0.861,0.134,0.087,0.018
1438,7,I,10,0.805,0.17,0.123,0.029
1439,7,I,11,0.859,0.164,0.128,0.027
1440,7,I,12,0.883,0.154,0.124,0.024
1441,7,I,13,0.788,0.201,0.119,0.04
1442,7,I,14,0.906,0.218,0.172,0.047
1443,7,I,15,0.876,0.15,0.108,0.023
1444,7,I,16,0.694,0.326,0.306,0.106
1445,7,II,0,0.969,0.068,0.051,0.005
1446,7,II,1,0.804,0.226,0.18,0.051
1447,7,II,2,0.678,0.338,0.268,0.114
1448,7,II,3,0.864,0.168,0.126,0.028
1449,7,II,4,0.98,0.048,0.038,0.002
1450,7,II,5,0.837,0.245,0.174,0.06
1451,7,II,6,0.796,0.188,0.137,0.035
1452,7,II,7,0.892,0.13,0.091,0.017
1453,7,II,8,0.406,0.585,0.56,0.342
1454,7,II,9,0.945,0.094,0.069,0.009
1455,7,II,10,0.618,0.251,0.213,0.063
1456,7,II,11,0.743,0.27,0.222,0.073
1457,7,II,12,0.748,0.323,0.302,0.104
1458,7,II,13,0.819,0.134,0.105,0.018
1459,7,II,14,0.964,0.118,0.094,0.014
1460,7,II,15,0.757,0.2,0.119,0.04
1461,7,II,16,0.337,0.281,0.255,0.079
1462,7,III,0,0.929,0.111,0.085,0.012
1463,7,III,1,0.449,0.333,0.254,0.111
1464,7,III,2,0.549,0.277,0.184,0.077
1465,7,III,3,0.489,0.324,0.266,0.105
1466,7,III,4,0.953,0.069,0.052,0.005
1467,7,III,5,0.381,0.378,0.237,0.143
1468,7,III,6,0.436,0.329,0.244,0.108
1469,7,III,7,0.73,0.21,0.134,0.044
1470,7,III,8,0.793,0.321,0.295,0.103
1471,7,III,9,0.634,0.306,0.197,0.094
1472,7,III,10,0.602,0.244,0.189,0.059
1473,7,III,11,0.979,0.064,0.047,0.004
1474,7,III,12,0.552,0.256,0.207,0.065
1475,7,III,13,0.838,0.142,0.095,0.02
1476,7,III,14,0.898,0.157,0.118,0.025
1477,7,III,15,0.862,0.161,0.12,0.026
1478,7,III,16,0.37,0.184,0.121,0.034
1479,7,AVR,0,0.954,0.117,0.102,0.014
1480,7,AVR,1,0.837,0.189,0.155,0.036
1481,7,AVR,2,0.733,0.26,0.21,0.068
1482,7,AVR,3,0.919,0.129,0.104,0.017
1483,7,AVR,4,0.938,0.089,0.072,0.008
1484,7,AVR,5,0.932,0.128,0.096,0.016
1485,7,AVR,6,0.906,0.126,0.09,0.016
1486,7,AVR,7,0.887,0.137,0.098,0.019
1487,7,AVR,8,0.473,0.438,0.397,0.192
1488,7,AVR,9,0.968,0.072,0.055,0.005
1489,7,AVR,10,0.712,0.231,0.176,0.053
1490,7,AVR,11,0.775,0.213,0.171,0.045
1491,7,AVR,12,0.966,0.065,0.05,0.004
1492,7,AVR,13,0.799,0.21,0.153,0.044
1493,7,AVR,14,0.937,0.135,0.113,0.018
1494,7,AVR,15,0.841,0.164,0.132,0.027
1495,7,AVR,16,0.79,0.182,0.151,0.033
1496,7,AVL,0,0.701,0.204,0.15,0.042
1497,7,AVL,1,0.326,0.37,0.278,0.137
1498,7,AVL,2,0.607,0.283,0.203,0.08
1499,7,AVL,3,0.772,0.26,0.222,0.068
1500,7,AVL,4,0.739,0.159,0.118,0.025
1501,7,AVL,5,0.539,0.234,0.15,0.055
1502,7,AVL,6,0.62,0.272,0.213,0.074
1503,7,AVL,7,0.668,0.236,0.168,0.056
1504,7,AVL,8,0.752,0.336,0.311,0.113
1505,7,AVL,9,0.382,0.356,0.216,0.127
1506,7,AVL,10,0.77,0.148,0.11,0.022
1507,7,AVL,11,0.929,0.113,0.087,0.013
1508,7,AVL,12,0.733,0.206,0.162,0.042
1509,7,AVL,13,0.855,0.148,0.088,0.022
1510,7,AVL,14,0.841,0.23,0.14,0.053
1511,7,AVL,15,0.889,0.152,0.103,0.023
1512,7,AVL,16,0.599,0.266,0.239,0.071
1513,7,AVF,0,0.967,0.071,0.051,0.005
1514,7,AVF,1,0.499,0.263,0.208,0.069
1515,7,AVF,2,0.53,0.257,0.178,0.066
1516,7,AVF,3,0.82,0.196,0.15,0.038
1517,7,AVF,4,0.989,0.036,0.026,0.001
1518,7,AVF,5,0.626,0.325,0.212,0.105
1519,7,AVF,6,0.647,0.268,0.198,0.072
1520,7,AVF,7,0.864,0.146,0.102,0.021
1521,7,AVF,8,0.693,0.415,0.385,0.172
1522,7,AVF,9,0.85,0.158,0.116,0.025
1523,7,AVF,10,0.545,0.445,0.384,0.198
1524,7,AVF,11,0.882,0.205,0.169,0.042
1525,7,AVF,12,0.546,0.343,0.31,0.118
1526,7,AVF,13,0.81,0.145,0.107,0.021
1527,7,AVF,14,0.953,0.107,0.077,0.011
1528,7,AVF,15,0.706,0.29,0.198,0.084
1529,7,AVF,16,0.068,0.186,0.11,0.035
1530,7,V1,0,0.94,0.091,0.063,0.008
1531,7,V1,1,0.808,0.201,0.161,0.04
1532,7,V1,2,0.848,0.201,0.147,0.04
1533,7,V1,3,0.802,0.173,0.109,0.03
1534,7,V1,4,0.178,0.43,0.337,0.185
1535,7,V1,5,0.603,0.21,0.159,0.044
1536,7,V1,6,0.857,0.153,0.111,0.023
1537,7,V1,7,0.841,0.188,0.126,0.035
1538,7,V1,8,0.743,0.215,0.178,0.046
1539,7,V1,9,0.809,0.162,0.117,0.026
1540,7,V1,10,0.849,0.134,0.081,0.018
1541,7,V1,11,0.59,0.277,0.23,0.077
1542,7,V1,12,0.792,0.205,0.177,0.042
1543,7,V1,13,0.554,0.373,0.286,0.139
1544,7,V1,14,0.699,0.202,0.149,0.041
1545,7,V1,15,0.595,0.223,0.16,0.05
1546,7,V1,16,0.683,0.491,0.473,0.241
1547,7,V2,0,0.923,0.113,0.084,0.013
1548,7,V2,1,0.799,0.303,0.255,0.092
1549,7,V2,2,0.769,0.241,0.171,0.058
1550,7,V2,3,0.83,0.182,0.118,0.033
1551,7,V2,4,0.661,0.231,0.193,0.053
1552,7,V2,5,0.776,0.291,0.224,0.085
1553,7,V2,6,0.68,0.242,0.19,0.059
1554,7,V2,7,0.874,0.134,0.084,0.018
1555,7,V2,8,0.376,0.363,0.293,0.131
1556,7,V2,9,0.843,0.155,0.11,0.024
1557,7,V2,10,0.684,0.229,0.191,0.052
1558,7,V2,11,0.591,0.231,0.176,0.054
1559,7,V2,12,0.447,0.465,0.451,0.216
1560,7,V2,13,0.261,0.603,0.419,0.364
1561,7,V2,14,0.782,0.272,0.212,0.074
1562,7,V2,15,0.606,0.287,0.204,0.082
1563,7,V2,16,0.856,0.455,0.445,0.207
1564,7,V3,0,0.939,0.148,0.099,0.022
1565,7,V3,1,0.457,0.46,0.379,0.212
1566,7,V3,2,0.546,0.304,0.23,0.093
1567,7,V3,3,0.741,0.215,0.156,0.046
1568,7,V3,4,0.33,0.579,0.539,0.335
1569,7,V3,5,0.733,0.366,0.296,0.134
1570,7,V3,6,0.764,0.214,0.159,0.046
1571,7,V3,7,0.858,0.144,0.104,0.021
1572,7,V3,8,0.928,0.3,0.289,0.09
1573,7,V3,9,0.876,0.194,0.144,0.038
1574,7,V3,10,0.541,0.31,0.266,0.096
1575,7,V3,11,0.66,0.222,0.178,0.049
1576,7,V3,12,0.232,0.653,0.635,0.426
1577,7,V3,13,0.294,0.545,0.393,0.298
1578,7,V3,14,0.894,0.154,0.114,0.024
1579,7,V3,15,0.825,0.159,0.119,0.025
1580,7,V3,16,0.953,0.052,0.038,0.003
1581,7,V4,0,0.947,0.142,0.121,0.02
1582,7,V4,1,0.616,0.307,0.257,0.094
1583,7,V4,2,0.237,0.514,0.39,0.265
1584,7,V4,3,0.859,0.182,0.134,0.033
1585,7,V4,4,0.465,0.298,0.248,0.089
1586,7,V4,5,0.779,0.284,0.231,0.081
1587,7,V4,6,0.79,0.174,0.135,0.03
1588,7,V4,7,0.796,0.175,0.129,0.03
1589,7,V4,8,0.727,0.213,0.178,0.045
1590,7,V4,9,0.932,0.147,0.121,0.022
1591,7,V4,10,0.454,0.244,0.182,0.06
1592,7,V4,11,0.147,0.562,0.514,0.316
1593,7,V4,12,0.554,0.234,0.19,0.055
1594,7,V4,13,0.851,0.116,0.073,0.013
1595,7,V4,14,0.917,0.133,0.096,0.018
1596,7,V4,15,0.759,0.175,0.119,0.031
1597,7,V4,16,0.725,0.159,0.137,0.025
1598,7,V5,0,0.954,0.099,0.077,0.01
1599,7,V5,1,0.7,0.221,0.171,0.049
1600,7,V5,2,0.357,0.516,0.386,0.266
1601,7,V5,3,0.901,0.15,0.119,0.023
1602,7,V5,4,0.333,0.781,0.744,0.609
1603,7,V5,5,0.87,0.184,0.144,0.034
1604,7,V5,6,0.793,0.207,0.17,0.043
1605,7,V5,7,0.836,0.154,0.106,0.024
1606,7,V5,8,0.767,0.167,0.133,0.028
1607,7,V5,9,0.955,0.079,0.061,0.006
1608,7,V5,10,0.569,0.373,0.323,0.139
1609,7,V5,11,0.37,0.458,0.413,0.21
1610,7,V5,12,0.492,0.407,0.349,0.165
1611,7,V5,13,0.884,0.109,0.058,0.012
1612,7,V5,14,0.898,0.142,0.102,0.02
1613,7,V5,15,0.688,0.266,0.153,0.071
1614,7,V5,16,0.717,0.16,0.124,0.026
1615,7,V6,0,0.969,0.089,0.071,0.008
1616,7,V6,1,0.694,0.223,0.182,0.05
1617,7,V6,2,0.918,0.13,0.095,0.017
1618,7,V6,3,0.901,0.178,0.152,0.032
1619,7,V6,4,0.218,0.628,0.556,0.394
1620,7,V6,5,0.876,0.153,0.114,0.023
1621,7,V6,6,0.782,0.261,0.216,0.068
1622,7,V6,7,0.505,0.311,0.207,0.097
1623,7,V6,8,0.968,0.064,0.044,0.004
1624,7,V6,9,0.942,0.091,0.071,0.008
1625,7,V6,10,0.707,0.259,0.217,0.067
1626,7,V6,11,0.573,0.294,0.237,0.086
1627,7,V6,12,0.256,0.476,0.403,0.227
1628,7,V6,13,0.856,0.134,0.087,0.018
1629,7,V6,14,0.897,0.125,0.087,0.016
1630,7,V6,15,0.516,0.312,0.202,0.097
1631,7,V6,16,0.746,0.196,0.17,0.038
1632,8,I,0,0.635,0.258,0.185,0.067
1633,8,I,1,0.937,0.117,0.093,0.014
1634,8,I,2,0.981,0.049,0.037,0.002
1635,8,I,3,0.459,0.322,0.271,0.103
1636,8,I,4,0.808,0.138,0.089,0.019
1637,8,I,5,0.839,0.309,0.294,0.095
1638,8,I,6,0.67,0.268,0.199,0.072
1639,8,I,7,0.836,0.176,0.141,0.031
1640,8,I,8,0.964,0.155,0.145,0.024
1641,8,I,9,0.934,0.093,0.07,0.009
1642,8,I,10,0.807,0.203,0.149,0.041
1643,8,I,11,0.876,0.137,0.101,0.019
1644,8,I,12,0.792,0.183,0.14,0.034
1645,8,I,13,0.924,0.133,0.093,0.018
1646,8,I,14,0.993,0.035,0.025,0.001
1647,8,I,15,0.628,0.401,0.379,0.161
1648,8,I,16,0.595,0.239,0.195,0.057
1649,8,II,0,0.567,0.338,0.279,0.114
1650,8,II,1,0.773,0.282,0.234,0.08
1651,8,II,2,0.923,0.3,0.287,0.09
1652,8,II,3,0.108,0.384,0.283,0.147
1653,8,II,4,0.849,0.262,0.23,0.069
1654,8,II,5,0.882,0.136,0.103,0.019
1655,8,II,6,0.951,0.166,0.114,0.028
1656,8,II,7,0.642,0.265,0.215,0.07
1657,8,II,8,0.898,0.323,0.309,0.105
1658,8,II,9,0.906,0.171,0.122,0.029
1659,8,II,10,0.895,0.114,0.084,0.013
1660,8,II,11,0.751,0.202,0.154,0.041
1661,8,II,12,0.908,0.187,0.171,0.035
1662,8,II,13,0.843,0.152,0.106,0.023
1663,8,II,14,0.903,0.161,0.129,0.026
1664,8,II,15,0.727,0.397,0.379,0.158
1665,8,II,16,0.991,0.04,0.03,0.002
1666,8,III,0,0.396,0.323,0.286,0.105
1667,8,III,1,0.615,0.322,0.264,0.104
1668,8,III,2,0.917,0.089,0.072,0.008
1669,8,III,3,0.485,0.344,0.237,0.118
1670,8,III,4,-0.081,0.387,0.334,0.15
1671,8,III,5,0.331,0.702,0.691,0.493
1672,8,III,6,0.988,0.073,0.049,0.005
1673,8,III,7,0.156,0.379,0.312,0.144
1674,8,III,8,0.901,0.309,0.294,0.095
1675,8,III,9,0.717,0.34,0.229,0.116
1676,8,III,10,0.637,0.253,0.172,0.064
1677,8,III,11,0.529,0.406,0.307,0.165
1678,8,III,12,0.544,0.352,0.308,0.124
1679,8,III,13,0.814,0.221,0.161,0.049
1680,8,III,14,0.745,0.301,0.264,0.09
1681,8,III,15,0.917,0.237,0.227,0.056
1682,8,III,16,0.879,0.177,0.129,0.031
1683,8,AVR,0,0.663,0.304,0.254,0.093
1684,8,AVR,1,0.902,0.143,0.113,0.02
1685,8,AVR,2,0.948,0.09,0.07,0.008
1686,8,AVR,3,0.067,0.448,0.392,0.201
1687,8,AVR,4,0.884,0.156,0.128,0.024
1688,8,AVR,5,0.921,0.245,0.233,0.06
1689,8,AVR,6,0.858,0.253,0.168,0.064
1690,8,AVR,7,0.766,0.188,0.155,0.035
1691,8,AVR,8,0.957,0.224,0.214,0.05
1692,8,AVR,9,0.93,0.148,0.113,0.022
1693,8,AVR,10,0.865,0.191,0.152,0.036
1694,8,AVR,11,0.893,0.124,0.094,0.015
1695,8,AVR,12,0.88,0.148,0.119,0.022
1696,8,AVR,13,0.922,0.116,0.083,0.013
1697,8,AVR,14,0.962,0.09,0.07,0.008
1698,8,AVR,15,0.313,0.428,0.393,0.183
1699,8,AVR,16,0.922,0.104,0.077,0.011
1700,8,AVL,0,0.562,0.301,0.251,0.09
1701,8,AVL,1,0.899,0.193,0.16,0.037
1702,8,AVL,2,0.988,0.046,0.034,0.002
1703,8,AVL,3,0.905,0.124,0.097,0.015
1704,8,AVL,4,0.346,0.211,0.135,0.044
1705,8,AVL,5,0.662,0.486,0.471,0.236
1706,8,AVL,6,0.833,0.412,0.386,0.17
1707,8,AVL,7,0.84,0.338,0.311,0.114
1708,8,AVL,8,0.984,0.061,0.048,0.004
1709,8,AVL,9,0.737,0.212,0.141,0.045
1710,8,AVL,10,0.748,0.199,0.131,0.04
1711,8,AVL,11,0.726,0.269,0.195,0.072
1712,8,AVL,12,0.347,0.339,0.277,0.115
1713,8,AVL,13,0.829,0.198,0.125,0.039
1714,8,AVL,14,0.945,0.222,0.209,0.049
1715,8,AVL,15,0.813,0.322,0.308,0.104
1716,8,AVL,16,0.523,0.31,0.234,0.096
1717,8,AVF,0,0.054,0.276,0.204,0.076
1718,8,AVF,1,0.575,0.287,0.223,0.082
1719,8,AVF,2,0.751,0.311,0.279,0.097
1720,8,AVF,3,0.204,0.348,0.225,0.121
1721,8,AVF,4,0.678,0.416,0.379,0.173
1722,8,AVF,5,0.243,0.607,0.592,0.368
1723,8,AVF,6,0.971,0.137,0.09,0.019
1724,8,AVF,7,0.35,0.308,0.258,0.095
1725,8,AVF,8,0.857,0.406,0.391,0.165
1726,8,AVF,9,0.843,0.221,0.143,0.049
1727,8,AVF,10,0.796,0.179,0.116,0.032
1728,8,AVF,11,0.523,0.45,0.367,0.202
1729,8,AVF,12,0.869,0.242,0.222,0.058
1730,8,AVF,13,0.841,0.146,0.106,0.021
1731,8,AVF,14,0.697,0.253,0.203,0.064
1732,8,AVF,15,0.967,0.058,0.041,0.003
1733,8,AVF,16,0.964,0.079,0.059,0.006
1734,8,V1,0,0.635,0.22,0.129,0.048
1735,8,V1,1,0.95,0.11,0.079,0.012
1736,8,V1,2,0.824,0.267,0.243,0.071
1737,8,V1,3,-0.689,0.763,0.738,0.582
1738,8,V1,4,0.89,0.229,0.212,0.052
1739,8,V1,5,0.948,0.195,0.18,0.038
1740,8,V1,6,0.895,0.12,0.082,0.014
1741,8,V1,7,0.902,0.122,0.093,0.015
1742,8,V1,8,0.953,0.09,0.069,0.008
1743,8,V1,9,0.924,0.14,0.109,0.02
1744,8,V1,10,0.88,0.15,0.106,0.022
1745,8,V1,11,0.655,0.306,0.254,0.094
1746,8,V1,12,0.912,0.133,0.111,0.018
1747,8,V1,13,0.471,0.334,0.261,0.112
1748,8,V1,14,0.95,0.09,0.071,0.008
1749,8,V1,15,-0.032,0.912,0.88,0.833
1750,8,V1,16,0.24,0.34,0.24,0.115
1751,8,V2,0,0.961,0.074,0.057,0.005
1752,8,V2,1,0.893,0.21,0.18,0.044
1753,8,V2,2,0.859,0.122,0.092,0.015
1754,8,V2,3,-0.357,0.615,0.527,0.378
1755,8,V2,4,0.9,0.157,0.129,0.025
1756,8,V2,5,0.98,0.057,0.037,0.003
1757,8,V2,6,0.721,0.55,0.519,0.302
1758,8,V2,7,0.427,0.393,0.323,0.155
1759,8,V2,8,0.938,0.133,0.115,0.018
1760,8,V2,9,0.93,0.1,0.07,0.01
1761,8,V2,10,0.727,0.214,0.172,0.046
1762,8,V2,11,0.582,0.354,0.285,0.125
1763,8,V2,12,0.878,0.188,0.161,0.035
1764,8,V2,13,0.827,0.174,0.104,0.03
1765,8,V2,14,0.875,0.202,0.172,0.041
1766,8,V2,15,-0.678,0.608,0.535,0.369
1767,8,V2,16,0.728,0.198,0.153,0.039
1768,8,V3,0,0.662,0.267,0.228,0.071
1769,8,V3,1,0.769,0.271,0.23,0.073
1770,8,V3,2,0.718,0.256,0.214,0.066
1771,8,V3,3,0.753,0.199,0.149,0.04
1772,8,V3,4,0.979,0.063,0.053,0.004
1773,8,V3,5,0.912,0.234,0.222,0.055
1774,8,V3,6,0.645,0.714,0.679,0.51
1775,8,V3,7,0.991,0.04,0.03,0.002
1776,8,V3,8,0.788,0.361,0.351,0.13
1777,8,V3,9,0.938,0.091,0.07,0.008
1778,8,V3,10,0.562,0.39,0.302,0.152
1779,8,V3,11,0.674,0.35,0.283,0.123
1780,8,V3,12,0.824,0.193,0.162,0.037
1781,8,V3,13,0.85,0.195,0.149,0.038
1782,8,V3,14,0.921,0.133,0.107,0.018
1783,8,V3,15,-0.587,0.423,0.273,0.179
1784,8,V3,16,0.293,0.509,0.463,0.259
1785,8,V4,0,0.366,0.223,0.134,0.05
1786,8,V4,1,0.584,0.376,0.326,0.141
1787,8,V4,2,0.846,0.22,0.197,0.048
1788,8,V4,3,0.29,0.317,0.248,0.101
1789,8,V4,4,0.918,0.085,0.067,0.007
1790,8,V4,5,0.84,0.429,0.404,0.184
1791,8,V4,6,0.853,0.364,0.341,0.132
1792,8,V4,7,0.906,0.217,0.202,0.047
1793,8,V4,8,0.74,0.401,0.387,0.16
1794,8,V4,9,0.933,0.106,0.082,0.011
1795,8,V4,10,0.702,0.314,0.235,0.099
1796,8,V4,11,0.699,0.268,0.21,0.072
1797,8,V4,12,0.982,0.051,0.037,0.003
1798,8,V4,13,0.807,0.143,0.112,0.02
1799,8,V4,14,0.935,0.091,0.072,0.008
1800,8,V4,15,0.443,0.211,0.162,0.045
1801,8,V4,16,0.258,0.376,0.296,0.142
1802,8,V5,0,0.387,0.298,0.205,0.089
1803,8,V5,1,0.634,0.447,0.423,0.2
1804,8,V5,2,0.914,0.18,0.162,0.033
1805,8,V5,3,0.225,0.265,0.138,0.07
1806,8,V5,4,0.916,0.174,0.159,0.03
1807,8,V5,5,0.873,0.149,0.115,0.022
1808,8,V5,6,0.855,0.214,0.181,0.046
1809,8,V5,7,0.931,0.237,0.229,0.056
1810,8,V5,8,0.828,0.26,0.24,0.068
1811,8,V5,9,0.905,0.114,0.082,0.013
1812,8,V5,10,0.868,0.16,0.115,0.026
1813,8,V5,11,0.831,0.15,0.119,0.023
1814,8,V5,12,0.868,0.149,0.116,0.022
1815,8,V5,13,0.637,0.283,0.227,0.08
1816,8,V5,14,0.934,0.122,0.101,0.015
1817,8,V5,15,0.405,0.471,0.444,0.222
1818,8,V5,16,0.213,0.676,0.624,0.457
1819,8,V6,0,0.646,0.279,0.213,0.078
1820,8,V6,1,0.905,0.113,0.08,0.013
1821,8,V6,2,0.93,0.16,0.143,0.026
1822,8,V6,3,0.083,0.316,0.182,0.1
1823,8,V6,4,0.925,0.262,0.245,0.068
1824,8,V6,5,0.911,0.279,0.27,0.078
1825,8,V6,6,0.918,0.149,0.109,0.022
1826,8,V6,7,0.954,0.192,0.18,0.037
1827,8,V6,8,0.882,0.161,0.126,0.026
1828,8,V6,9,0.899,0.129,0.087,0.017
1829,8,V6,10,0.92,0.111,0.088,0.012
1830,8,V6,11,0.83,0.175,0.123,0.031
1831,8,V6,12,0.79,0.166,0.13,0.028
1832,8,V6,13,0.644,0.271,0.216,0.074
1833,8,V6,14,0.962,0.141,0.124,0.02
1834,8,V6,15,0.151,0.742,0.706,0.55
1835,8,V6,16,0.317,0.58,0.518,0.337
1836,9,I,0,0.964,0.104,0.074,0.011
1837,9,I,1,0.819,0.2,0.145,0.04
1838,9,I,2,0.95,0.137,0.119,0.019
1839,9,I,3,0.904,0.241,0.226,0.058
1840,9,I,4,0.847,0.169,0.142,0.029
1841,9,I,5,0.87,0.18,0.134,0.033
1842,9,I,6,0.784,0.309,0.279,0.095
1843,9,I,7,0.931,0.226,0.214,0.051
1844,9,I,8,0.857,0.137,0.109,0.019
1845,9,I,9,0.499,0.36,0.286,0.13
1846,9,I,10,0.864,0.251,0.22,0.063
1847,9,I,11,0.956,0.079,0.055,0.006
1848,9,I,12,0.924,0.086,0.064,0.007
1849,9,I,13,0.891,0.192,0.169,0.037
1850,9,I,14,0.903,0.251,0.226,0.063
1851,9,I,15,0.871,0.279,0.26,0.078
1852,9,I,16,0.769,0.149,0.098,0.022
1853,9,II,0,0.378,0.381,0.313,0.145
1854,9,II,1,0.78,0.215,0.162,0.046
1855,9,II,2,0.86,0.169,0.132,0.028
1856,9,II,3,0.813,0.253,0.218,0.064
1857,9,II,4,0.786,0.252,0.193,0.063
1858,9,II,5,0.829,0.22,0.159,0.048
1859,9,II,6,0.795,0.183,0.14,0.034
1860,9,II,7,0.924,0.203,0.186,0.041
1861,9,II,8,0.984,0.058,0.041,0.003
1862,9,II,9,0.378,0.741,0.717,0.55
1863,9,II,10,0.272,0.758,0.74,0.575
1864,9,II,11,0.875,0.132,0.095,0.017
1865,9,II,12,0.666,0.299,0.237,0.089
1866,9,II,13,0.872,0.168,0.131,0.028
1867,9,II,14,0.699,0.192,0.147,0.037
1868,9,II,15,0.98,0.059,0.04,0.003
1869,9,II,16,0.799,0.259,0.23,0.067
1870,9,III,0,0.413,0.302,0.234,0.091
1871,9,III,1,0.844,0.217,0.15,0.047
1872,9,III,2,0.818,0.425,0.404,0.18
1873,9,III,3,0.241,0.591,0.559,0.349
1874,9,III,4,0.391,0.605,0.562,0.366
1875,9,III,5,0.74,0.323,0.263,0.104
1876,9,III,6,0.34,0.312,0.269,0.098
1877,9,III,7,-0.248,0.685,0.65,0.469
1878,9,III,8,0.408,0.538,0.473,0.289
1879,9,III,9,0.339,0.714,0.695,0.509
1880,9,III,10,0.509,0.471,0.443,0.221
1881,9,III,11,0.848,0.161,0.111,0.026
1882,9,III,12,0.804,0.151,0.107,0.023
1883,9,III,13,0.16,0.57,0.541,0.325
1884,9,III,14,-0.056,0.429,0.364,0.184
1885,9,III,15,0.147,0.613,0.58,0.376
1886,9,III,16,0.03,0.32,0.275,0.102
1887,9,AVR,0,0.816,0.228,0.179,0.052
1888,9,AVR,1,0.792,0.213,0.165,0.045
1889,9,AVR,2,0.949,0.177,0.159,0.031
1890,9,AVR,3,0.888,0.24,0.223,0.058
1891,9,AVR,4,0.86,0.142,0.112,0.02
1892,9,AVR,5,0.845,0.24,0.183,0.058
1893,9,AVR,6,0.853,0.18,0.148,0.032
1894,9,AVR,7,0.953,0.147,0.132,0.022
1895,9,AVR,8,0.947,0.107,0.084,0.012
1896,9,AVR,9,0.792,0.182,0.153,0.033
1897,9,AVR,10,0.666,0.562,0.544,0.316
1898,9,AVR,11,0.946,0.084,0.056,0.007
1899,9,AVR,12,0.83,0.145,0.11,0.021
1900,9,AVR,13,0.92,0.13,0.102,0.017
1901,9,AVR,14,0.847,0.163,0.128,0.026
1902,9,AVR,15,0.94,0.142,0.123,0.02
1903,9,AVR,16,0.823,0.138,0.093,0.019
1904,9,AVL,0,0.786,0.201,0.145,0.04
1905,9,AVL,1,0.806,0.222,0.142,0.049
1906,9,AVL,2,0.932,0.185,0.165,0.034
1907,9,AVL,3,0.826,0.409,0.397,0.167
1908,9,AVL,4,0.626,0.388,0.346,0.151
1909,9,AVL,5,0.825,0.177,0.125,0.031
1910,9,AVL,6,0.092,0.393,0.325,0.155
1911,9,AVL,7,0.724,0.497,0.481,0.247
1912,9,AVL,8,0.538,0.275,0.204,0.076
1913,9,AVL,9,0.282,0.532,0.497,0.283
1914,9,AVL,10,0.92,0.202,0.18,0.041
1915,9,AVL,11,0.939,0.096,0.063,0.009
1916,9,AVL,12,0.866,0.117,0.087,0.014
1917,9,AVL,13,0.776,0.364,0.342,0.133
1918,9,AVL,14,0.749,0.419,0.382,0.175
1919,9,AVL,15,0.715,0.421,0.394,0.177
1920,9,AVL,16,0.609,0.234,0.189,0.055
1921,9,AVF,0,0.057,0.395,0.328,0.156
1922,9,AVF,1,0.843,0.166,0.126,0.028
1923,9,AVF,2,0.47,0.551,0.522,0.304
1924,9,AVF,3,0.452,0.343,0.293,0.118
1925,9,AVF,4,0.372,0.436,0.377,0.19
1926,9,AVF,5,0.805,0.259,0.188,0.067
1927,9,AVF,6,0.67,0.241,0.199,0.058
1928,9,AVF,7,0.807,0.21,0.18,0.044
1929,9,AVF,8,0.869,0.23,0.191,0.053
1930,9,AVF,9,0.313,0.792,0.771,0.627
1931,9,AVF,10,-0.306,0.819,0.794,0.67
1932,9,AVF,11,0.674,0.232,0.159,0.054
1933,9,AVF,12,0.731,0.227,0.164,0.051
1934,9,AVF,13,0.118,0.644,0.605,0.415
1935,9,AVF,14,0.24,0.484,0.411,0.234
1936,9,AVF,15,0.252,0.55,0.523,0.302
1937,9,AVF,16,0.55,0.277,0.23,0.077
1938,9,V1,0,0.124,0.504,0.432,0.254
1939,9,V1,1,0.853,0.209,0.169,0.044
1940,9,V1,2,0.929,0.289,0.271,0.083
1941,9,V1,3,0.949,0.301,0.293,0.091
1942,9,V1,4,0.524,0.293,0.246,0.086
1943,9,V1,5,0.583,0.473,0.353,0.224
1944,9,V1,6,0.969,0.134,0.121,0.018
1945,9,V1,7,0.945,0.234,0.22,0.055
1946,9,V1,8,0.822,0.174,0.144,0.03
1947,9,V1,9,0.773,0.283,0.247,0.08
1948,9,V1,10,0.894,0.156,0.131,0.024
1949,9,V1,11,0.849,0.15,0.103,0.022
1950,9,V1,12,0.657,0.268,0.16,0.072
1951,9,V1,13,0.955,0.096,0.08,0.009
1952,9,V1,14,0.958,0.077,0.053,0.006
1953,9,V1,15,0.923,0.131,0.097,0.017
1954,9,V1,16,0.547,0.285,0.233,0.081
1955,9,V2,0,0.326,0.262,0.195,0.069
1956,9,V2,1,0.895,0.138,0.11,0.019
1957,9,V2,2,0.974,0.071,0.05,0.005
1958,9,V2,3,0.984,0.065,0.049,0.004
1959,9,V2,4,0.56,0.29,0.232,0.084
1960,9,V2,5,0.56,0.387,0.26,0.15
1961,9,V2,6,0.983,0.047,0.035,0.002
1962,9,V2,7,0.965,0.082,0.059,0.007
1963,9,V2,8,0.659,0.252,0.212,0.063
1964,9,V2,9,0.904,0.18,0.148,0.032
1965,9,V2,10,0.981,0.055,0.041,0.003
1966,9,V2,11,0.87,0.149,0.118,0.022
1967,9,V2,12,0.671,0.229,0.154,0.053
1968,9,V2,13,0.64,0.265,0.236,0.07
1969,9,V2,14,0.835,0.198,0.165,0.039
1970,9,V2,15,0.527,0.28,0.23,0.078
1971,9,V2,16,0.975,0.061,0.048,0.004
1972,9,V3,0,0.347,0.278,0.21,0.077
1973,9,V3,1,0.898,0.178,0.15,0.032
1974,9,V3,2,0.938,0.103,0.067,0.011
1975,9,V3,3,0.793,0.319,0.29,0.102
1976,9,V3,4,0.453,0.616,0.525,0.379
1977,9,V3,5,0.719,0.375,0.285,0.141
1978,9,V3,6,0.823,0.132,0.097,0.017
1979,9,V3,7,0.952,0.118,0.088,0.014
1980,9,V3,8,0.856,0.201,0.169,0.04
1981,9,V3,9,0.983,0.074,0.053,0.005
1982,9,V3,10,0.874,0.159,0.142,0.025
1983,9,V3,11,0.929,0.098,0.072,0.01
1984,9,V3,12,0.628,0.279,0.193,0.078
1985,9,V3,13,0.93,0.176,0.142,0.031
1986,9,V3,14,0.674,0.342,0.323,0.117
1987,9,V3,15,0.305,0.378,0.341,0.143
1988,9,V3,16,0.927,0.212,0.197,0.045
1989,9,V4,0,0.566,0.347,0.304,0.12
1990,9,V4,1,0.93,0.106,0.085,0.011
1991,9,V4,2,0.926,0.164,0.143,0.027
1992,9,V4,3,0.851,0.274,0.256,0.075
1993,9,V4,4,0.661,0.207,0.164,0.043
1994,9,V4,5,0.861,0.286,0.241,0.082
1995,9,V4,6,0.527,0.393,0.367,0.155
1996,9,V4,7,0.972,0.106,0.092,0.011
1997,9,V4,8,0.885,0.216,0.2,0.047
1998,9,V4,9,0.773,0.329,0.302,0.108
1999,9,V4,10,0.476,0.517,0.497,0.267
2000,9,V4,11,0.94,0.097,0.076,0.009
2001,9,V4,12,0.854,0.128,0.099,0.016
2002,9,V4,13,0.962,0.087,0.073,0.008
2003,9,V4,14,0.753,0.3,0.28,0.09
2004,9,V4,15,0.634,0.413,0.398,0.17
2005,9,V4,16,0.836,0.363,0.352,0.131
2006,9,V5,0,0.415,0.272,0.215,0.074
2007,9,V5,1,0.901,0.176,0.147,0.031
2008,9,V5,2,0.932,0.219,0.204,0.048
2009,9,V5,3,0.528,0.289,0.25,0.084
2010,9,V5,4,0.753,0.153,0.126,0.023
2011,9,V5,5,0.804,0.254,0.2,0.064
2012,9,V5,6,0.806,0.275,0.243,0.076
2013,9,V5,7,0.988,0.046,0.034,0.002
2014,9,V5,8,0.863,0.175,0.138,0.031
2015,9,V5,9,0.821,0.305,0.287,0.093
2016,9,V5,10,0.286,0.644,0.631,0.414
2017,9,V5,11,0.944,0.078,0.058,0.006
2018,9,V5,12,0.537,0.238,0.173,0.057
2019,9,V5,13,0.974,0.052,0.033,0.003
2020,9,V5,14,0.875,0.137,0.1,0.019
2021,9,V5,15,0.844,0.242,0.217,0.059
2022,9,V5,16,0.575,0.237,0.161,0.056
2023,9,V6,0,0.311,0.26,0.195,0.067
2024,9,V6,1,0.735,0.317,0.257,0.101
2025,9,V6,2,0.934,0.191,0.171,0.036
2026,9,V6,3,0.887,0.228,0.206,0.052
2027,9,V6,4,0.724,0.305,0.261,0.093
2028,9,V6,5,0.61,0.343,0.247,0.117
2029,9,V6,6,0.853,0.288,0.265,0.083
2030,9,V6,7,0.975,0.088,0.073,0.008
2031,9,V6,8,0.784,0.187,0.16,0.035
2032,9,V6,9,0.566,0.47,0.439,0.22
2033,9,V6,10,0.134,0.777,0.765,0.604
2034,9,V6,11,0.955,0.089,0.071,0.008
2035,9,V6,12,0.358,0.374,0.267,0.14
2036,9,V6,13,0.931,0.101,0.083,0.01
2037,9,V6,14,0.642,0.235,0.189,0.055
2038,9,V6,15,0.914,0.119,0.086,0.014
2039,9,V6,16,0.736,0.164,0.104,0.027
2040,10,I,0,0.602,0.228,0.183,0.052
2041,10,I,1,0.444,0.302,0.206,0.091
2042,10,I,2,0.646,0.246,0.207,0.06
2043,10,I,3,0.956,0.082,0.064,0.007
2044,10,I,4,0.888,0.156,0.131,0.024
2045,10,I,5,0.87,0.237,0.215,0.056
2046,10,I,6,0.908,0.148,0.106,0.022
2047,10,I,7,0.935,0.121,0.092,0.015
2048,10,I,8,0.906,0.216,0.198,0.046
2049,10,I,9,0.876,0.14,0.098,0.02
2050,10,I,10,0.721,0.237,0.206,0.056
2051,10,I,11,0.777,0.321,0.3,0.103
2052,10,I,12,0.933,0.097,0.074,0.009
2053,10,I,13,0.875,0.153,0.123,0.023
2054,10,I,14,0.831,0.157,0.125,0.025
2055,10,I,15,0.559,0.448,0.385,0.201
2056,10,I,16,0.812,0.367,0.331,0.135
2057,10,II,0,0.747,0.291,0.217,0.085
2058,10,II,1,0.938,0.129,0.094,0.017
2059,10,II,2,0.749,0.238,0.192,0.057
2060,10,II,3,0.939,0.103,0.084,0.011
2061,10,II,4,0.622,0.338,0.302,0.114
2062,10,II,5,0.944,0.141,0.108,0.02
2063,10,II,6,0.894,0.222,0.163,0.049
2064,10,II,7,0.963,0.179,0.168,0.032
2065,10,II,8,0.751,0.368,0.341,0.135
2066,10,II,9,0.815,0.177,0.132,0.031
2067,10,II,10,0.908,0.175,0.137,0.031
2068,10,II,11,0.97,0.075,0.058,0.006
2069,10,II,12,0.906,0.175,0.13,0.031
2070,10,II,13,0.903,0.13,0.096,0.017
2071,10,II,14,0.839,0.366,0.352,0.134
2072,10,II,15,0.827,0.157,0.131,0.025
2073,10,II,16,0.626,0.232,0.188,0.054
2074,10,III,0,0.986,0.058,0.044,0.003
2075,10,III,1,0.795,0.223,0.175,0.05
2076,10,III,2,-0.006,0.412,0.365,0.169
2077,10,III,3,0.43,0.377,0.297,0.142
2078,10,III,4,0.651,0.121,0.098,0.015
2079,10,III,5,0.982,0.074,0.059,0.005
2080,10,III,6,0.783,0.247,0.166,0.061
2081,10,III,7,0.669,0.617,0.6,0.38
2082,10,III,8,-0.32,0.612,0.539,0.375
2083,10,III,9,0.488,0.29,0.234,0.084
2084,10,III,10,0.986,0.068,0.051,0.005
2085,10,III,11,0.785,0.437,0.418,0.191
2086,10,III,12,0.821,0.293,0.204,0.086
2087,10,III,13,0.61,0.223,0.162,0.05
2088,10,III,14,-0.555,0.479,0.381,0.229
2089,10,III,15,-0.019,0.449,0.418,0.202
2090,10,III,16,0.575,0.53,0.503,0.281
2091,10,AVR,0,0.528,0.294,0.237,0.087
2092,10,AVR,1,0.838,0.171,0.109,0.029
2093,10,AVR,2,0.749,0.197,0.155,0.039
2094,10,AVR,3,0.976,0.061,0.048,0.004
2095,10,AVR,4,0.824,0.153,0.121,0.023
2096,10,AVR,5,0.705,0.466,0.444,0.218
2097,10,AVR,6,0.918,0.126,0.098,0.016
2098,10,AVR,7,0.978,0.085,0.071,0.007
2099,10,AVR,8,0.895,0.257,0.243,0.066
2100,10,AVR,9,0.877,0.163,0.124,0.027
2101,10,AVR,10,0.836,0.169,0.121,0.028
2102,10,AVR,11,0.799,0.275,0.253,0.076
2103,10,AVR,12,0.885,0.192,0.155,0.037
2104,10,AVR,13,0.914,0.118,0.091,0.014
2105,10,AVR,14,0.946,0.133,0.112,0.018
2106,10,AVR,15,0.739,0.266,0.214,0.071
2107,10,AVR,16,0.832,0.345,0.309,0.119
2108,10,AVL,0,0.916,0.169,0.141,0.029
2109,10,AVL,1,0.047,0.372,0.283,0.138
2110,10,AVL,2,0.317,0.292,0.237,0.085
2111,10,AVL,3,0.808,0.148,0.108,0.022
2112,10,AVL,4,0.774,0.14,0.108,0.02
2113,10,AVL,5,0.978,0.082,0.061,0.007
2114,10,AVL,6,0.821,0.199,0.132,0.039
2115,10,AVL,7,0.2,0.568,0.549,0.323
2116,10,AVL,8,0.274,0.299,0.255,0.089
2117,10,AVL,9,0.728,0.219,0.168,0.048
2118,10,AVL,10,0.869,0.188,0.143,0.035
2119,10,AVL,11,0.823,0.348,0.332,0.121
2120,10,AVL,12,0.87,0.153,0.102,0.023
2121,10,AVL,13,0.482,0.274,0.209,0.075
2122,10,AVL,14,0.414,0.311,0.243,0.097
2123,10,AVL,15,-0.189,0.572,0.523,0.327
2124,10,AVL,16,0.73,0.467,0.438,0.218
2125,10,AVF,0,0.938,0.216,0.182,0.047
2126,10,AVF,1,0.985,0.055,0.035,0.003
2127,10,AVF,2,0.514,0.445,0.403,0.198
2128,10,AVF,3,0.83,0.18,0.144,0.032
2129,10,AVF,4,0.518,0.217,0.177,0.047
2130,10,AVF,5,0.973,0.084,0.066,0.007
2131,10,AVF,6,0.836,0.26,0.194,0.068
2132,10,AVF,7,0.911,0.329,0.318,0.109
2133,10,AVF,8,0.41,0.505,0.466,0.255
2134,10,AVF,9,0.639,0.199,0.151,0.04
2135,10,AVF,10,0.954,0.136,0.111,0.018
2136,10,AVF,11,0.637,0.542,0.517,0.294
2137,10,AVF,12,0.891,0.19,0.126,0.036
2138,10,AVF,13,0.852,0.143,0.1,0.021
2139,10,AVF,14,0.292,0.634,0.61,0.402
2140,10,AVF,15,0.815,0.27,0.238,0.073
2141,10,AVF,16,0.325,0.542,0.513,0.294
2142,10,V1,0,0.61,0.223,0.155,0.05
2143,10,V1,1,0.641,0.291,0.234,0.084
2144,10,V1,2,0.98,0.058,0.044,0.003
2145,10,V1,3,0.935,0.129,0.102,0.017
2146,10,V1,4,0.575,0.217,0.135,0.047
2147,10,V1,5,-0.192,0.886,0.847,0.784
2148,10,V1,6,0.87,0.189,0.141,0.036
2149,10,V1,7,0.884,0.144,0.113,0.021
2150,10,V1,8,0.869,0.299,0.284,0.09
2151,10,V1,9,0.851,0.126,0.083,0.016
2152,10,V1,10,0.869,0.144,0.11,0.021
2153,10,V1,11,0.885,0.246,0.225,0.06
2154,10,V1,12,0.885,0.198,0.162,0.039
2155,10,V1,13,0.925,0.134,0.108,0.018
2156,10,V1,14,0.97,0.145,0.131,0.021
2157,10,V1,15,0.987,0.049,0.035,0.002
2158,10,V1,16,0.948,0.123,0.095,0.015
2159,10,V2,0,0.401,0.237,0.164,0.056
2160,10,V2,1,0.848,0.255,0.228,0.065
2161,10,V2,2,0.903,0.209,0.184,0.044
2162,10,V2,3,0.857,0.347,0.325,0.12
2163,10,V2,4,0.746,0.263,0.228,0.069
2164,10,V2,5,-0.724,0.912,0.883,0.831
2165,10,V2,6,0.696,0.245,0.172,0.06
2166,10,V2,7,0.931,0.263,0.251,0.069
2167,10,V2,8,0.985,0.051,0.037,0.003
2168,10,V2,9,0.861,0.132,0.093,0.017
2169,10,V2,10,0.928,0.139,0.113,0.019
2170,10,V2,11,0.75,0.393,0.368,0.154
2171,10,V2,12,0.946,0.088,0.065,0.008
2172,10,V2,13,0.824,0.251,0.215,0.063
2173,10,V2,14,0.982,0.057,0.044,0.003
2174,10,V2,15,0.911,0.146,0.118,0.021
2175,10,V2,16,0.975,0.094,0.08,0.009
2176,10,V3,0,0.191,0.32,0.228,0.103
2177,10,V3,1,0.804,0.182,0.154,0.033
2178,10,V3,2,0.789,0.231,0.194,0.053
2179,10,V3,3,0.903,0.176,0.141,0.031
2180,10,V3,4,0.435,0.295,0.241,0.087
2181,10,V3,5,-0.22,0.728,0.704,0.53
2182,10,V3,6,0.83,0.22,0.177,0.049
2183,10,V3,7,0.895,0.149,0.12,0.022
2184,10,V3,8,0.558,0.466,0.449,0.217
2185,10,V3,9,0.643,0.264,0.213,0.07
2186,10,V3,10,0.748,0.363,0.336,0.132
2187,10,V3,11,0.745,0.412,0.387,0.17
2188,10,V3,12,0.955,0.074,0.053,0.006
2189,10,V3,13,0.414,0.48,0.414,0.23
2190,10,V3,14,0.919,0.156,0.132,0.024
2191,10,V3,15,0.771,0.345,0.332,0.119
2192,10,V3,16,0.947,0.134,0.1,0.018
2193,10,V4,0,0.308,0.297,0.235,0.088
2194,10,V4,1,0.279,0.355,0.299,0.126
2195,10,V4,2,0.791,0.156,0.129,0.024
2196,10,V4,3,0.88,0.276,0.232,0.076
2197,10,V4,4,0.701,0.286,0.24,0.082
2198,10,V4,5,0.786,0.169,0.116,0.028
2199,10,V4,6,0.68,0.344,0.283,0.118
2200,10,V4,7,0.956,0.264,0.254,0.07
2201,10,V4,8,0.663,0.513,0.502,0.263
2202,10,V4,9,0.509,0.291,0.244,0.085
2203,10,V4,10,0.754,0.349,0.335,0.122
2204,10,V4,11,0.79,0.145,0.126,0.021
2205,10,V4,12,0.949,0.101,0.082,0.01
2206,10,V4,13,0.78,0.2,0.149,0.04
2207,10,V4,14,0.585,0.384,0.359,0.148
2208,10,V4,15,0.888,0.243,0.229,0.059
2209,10,V4,16,0.789,0.388,0.356,0.15
2210,10,V5,0,0.623,0.2,0.145,0.04
2211,10,V5,1,0.703,0.284,0.25,0.08
2212,10,V5,2,0.814,0.165,0.136,0.027
2213,10,V5,3,0.963,0.068,0.052,0.005
2214,10,V5,4,0.741,0.194,0.142,0.038
2215,10,V5,5,0.872,0.231,0.206,0.053
2216,10,V5,6,0.787,0.242,0.194,0.059
2217,10,V5,7,0.971,0.137,0.127,0.019
2218,10,V5,8,0.854,0.351,0.343,0.123
2219,10,V5,9,0.781,0.206,0.169,0.043
2220,10,V5,10,0.893,0.126,0.098,0.016
2221,10,V5,11,0.824,0.155,0.122,0.024
2222,10,V5,12,0.898,0.124,0.091,0.015
2223,10,V5,13,0.831,0.157,0.122,0.025
2224,10,V5,14,0.918,0.233,0.22,0.054
2225,10,V5,15,0.934,0.209,0.195,0.044
2226,10,V5,16,0.208,0.667,0.638,0.445
2227,10,V6,0,0.719,0.162,0.117,0.026
2228,10,V6,1,0.732,0.235,0.202,0.055
2229,10,V6,2,0.768,0.191,0.147,0.036
2230,10,V6,3,0.859,0.154,0.106,0.024
2231,10,V6,4,0.763,0.198,0.13,0.039
2232,10,V6,5,0.731,0.282,0.24,0.079
2233,10,V6,6,0.694,0.207,0.16,0.043
2234,10,V6,7,0.992,0.038,0.025,0.001
2235,10,V6,8,0.894,0.289,0.277,0.083
2236,10,V6,9,0.874,0.165,0.131,0.027
2237,10,V6,10,0.902,0.142,0.107,0.02
2238,10,V6,11,0.837,0.228,0.205,0.052
2239,10,V6,12,0.86,0.146,0.106,0.021
2240,10,V6,13,0.872,0.14,0.11,0.02
2241,10,V6,14,0.946,0.226,0.214,0.051
2242,10,V6,15,0.946,0.105,0.083,0.011
2243,10,V6,16,0.361,0.436,0.4,0.19
2244,11,I,0,0.889,0.176,0.152,0.031
2245,11,I,1,0.806,0.169,0.117,0.028
2246,11,I,2,0.873,0.19,0.164,0.036
2247,11,I,3,0.95,0.106,0.087,0.011
2248,11,I,4,0.877,0.174,0.149,0.03
2249,11,I,5,0.857,0.169,0.131,0.029
2250,11,I,6,-0.171,0.588,0.539,0.346
2251,11,I,7,0.837,0.189,0.141,0.036
2252,11,I,8,0.586,0.267,0.209,0.071
2253,11,I,9,0.817,0.233,0.184,0.054
2254,11,I,10,0.961,0.205,0.197,0.042
2255,11,I,11,0.861,0.154,0.112,0.024
2256,11,I,12,0.891,0.13,0.1,0.017
2257,11,I,13,0.924,0.12,0.083,0.014
2258,11,I,14,0.689,0.228,0.184,0.052
2259,11,I,15,0.989,0.046,0.034,0.002
2260,11,I,16,0.909,0.139,0.107,0.019
2261,11,II,0,0.885,0.193,0.162,0.037
2262,11,II,1,0.939,0.119,0.096,0.014
2263,11,II,2,0.55,0.426,0.393,0.181
2264,11,II,3,0.967,0.128,0.112,0.016
2265,11,II,4,0.854,0.256,0.229,0.065
2266,11,II,5,0.12,0.621,0.59,0.385
2267,11,II,6,0.926,0.173,0.125,0.03
2268,11,II,7,0.846,0.217,0.165,0.047
2269,11,II,8,0.858,0.134,0.103,0.018
2270,11,II,9,0.298,0.368,0.292,0.135
2271,11,II,10,0.919,0.126,0.099,0.016
2272,11,II,11,0.666,0.27,0.181,0.073
2273,11,II,12,0.88,0.275,0.25,0.075
2274,11,II,13,0.946,0.116,0.089,0.014
2275,11,II,14,0.911,0.246,0.231,0.061
2276,11,II,15,0.91,0.124,0.089,0.015
2277,11,II,16,0.828,0.29,0.247,0.084
2278,11,III,0,0.886,0.133,0.099,0.018
2279,11,III,1,0.936,0.206,0.174,0.042
2280,11,III,2,-0.019,0.527,0.494,0.278
2281,11,III,3,0.228,0.471,0.371,0.222
2282,11,III,4,0.13,0.488,0.44,0.238
2283,11,III,5,-0.113,0.509,0.469,0.259
2284,11,III,6,0.801,0.261,0.18,0.068
2285,11,III,7,0.665,0.323,0.239,0.105
2286,11,III,8,0.29,0.377,0.292,0.142
2287,11,III,9,0.746,0.228,0.183,0.052
2288,11,III,10,0.209,0.45,0.411,0.202
2289,11,III,11,0.748,0.248,0.178,0.061
2290,11,III,12,0.949,0.073,0.047,0.005
2291,11,III,13,0.784,0.198,0.138,0.039
2292,11,III,14,0.087,0.64,0.602,0.41
2293,11,III,15,0.113,0.328,0.234,0.108
2294,11,III,16,-0.132,0.455,0.423,0.207
2295,11,AVR,0,0.887,0.178,0.139,0.032
2296,11,AVR,1,0.844,0.151,0.113,0.023
2297,11,AVR,2,0.773,0.183,0.125,0.033
2298,11,AVR,3,0.977,0.117,0.104,0.014
2299,11,AVR,4,0.908,0.239,0.224,0.057
2300,11,AVR,5,0.522,0.498,0.476,0.248
2301,11,AVR,6,0.972,0.099,0.077,0.01
2302,11,AVR,7,0.778,0.234,0.175,0.055
2303,11,AVR,8,0.797,0.205,0.166,0.042
2304,11,AVR,9,0.606,0.276,0.214,0.076
2305,11,AVR,10,0.964,0.092,0.074,0.009
2306,11,AVR,11,0.773,0.239,0.176,0.057
2307,11,AVR,12,0.869,0.195,0.163,0.038
2308,11,AVR,13,0.97,0.074,0.057,0.005
2309,11,AVR,14,0.963,0.066,0.048,0.004
2310,11,AVR,15,0.968,0.107,0.088,0.011
2311,11,AVR,16,0.95,0.098,0.072,0.01
2312,11,AVL,0,0.876,0.212,0.192,0.045
2313,11,AVL,1,0.755,0.262,0.232,0.069
2314,11,AVL,2,0.719,0.378,0.342,0.143
2315,11,AVL,3,0.774,0.327,0.272,0.107
2316,11,AVL,4,0.348,0.243,0.187,0.059
2317,11,AVL,5,0.543,0.305,0.249,0.093
2318,11,AVL,6,0.594,0.348,0.279,0.121
2319,11,AVL,7,0.746,0.255,0.182,0.065
2320,11,AVL,8,-0.242,0.43,0.333,0.185
2321,11,AVL,9,0.852,0.229,0.181,0.052
2322,11,AVL,10,0.857,0.416,0.402,0.173
2323,11,AVL,11,0.824,0.161,0.11,0.026
2324,11,AVL,12,0.921,0.102,0.074,0.01
2325,11,AVL,13,0.74,0.207,0.143,0.043
2326,11,AVL,14,-0.575,0.639,0.594,0.409
2327,11,AVL,15,0.728,0.271,0.22,0.073
2328,11,AVL,16,0.714,0.285,0.258,0.081
2329,11,AVF,0,0.971,0.072,0.055,0.005
2330,11,AVF,1,0.968,0.079,0.056,0.006
2331,11,AVF,2,-0.174,0.54,0.488,0.291
2332,11,AVF,3,0.802,0.187,0.15,0.035
2333,11,AVF,4,0.708,0.344,0.308,0.119
2334,11,AVF,5,-0.108,0.635,0.604,0.403
2335,11,AVF,6,0.92,0.175,0.127,0.031
2336,11,AVF,7,0.711,0.275,0.212,0.076
2337,11,AVF,8,0.798,0.189,0.14,0.036
2338,11,AVF,9,0.448,0.281,0.22,0.079
2339,11,AVF,10,0.72,0.274,0.216,0.075
2340,11,AVF,11,0.661,0.27,0.18,0.073
2341,11,AVF,12,0.899,0.265,0.246,0.07
2342,11,AVF,13,0.908,0.158,0.119,0.025
2343,11,AVF,14,0.729,0.411,0.389,0.169
2344,11,AVF,15,0.69,0.204,0.14,0.042
2345,11,AVF,16,-0.012,0.461,0.427,0.213
2346,11,V1,0,0.9,0.186,0.158,0.035
2347,11,V1,1,0.714,0.193,0.14,0.037
2348,11,V1,2,0.839,0.134,0.101,0.018
2349,11,V1,3,0.975,0.109,0.089,0.012
2350,11,V1,4,0.851,0.135,0.104,0.018
2351,11,V1,5,0.88,0.142,0.115,0.02
2352,11,V1,6,-0.544,0.801,0.737,0.642
2353,11,V1,7,0.927,0.105,0.074,0.011
2354,11,V1,8,0.835,0.16,0.111,0.026
2355,11,V1,9,0.903,0.156,0.114,0.024
2356,11,V1,10,0.971,0.156,0.138,0.024
2357,11,V1,11,0.848,0.242,0.2,0.059
2358,11,V1,12,0.857,0.164,0.119,0.027
2359,11,V1,13,0.89,0.136,0.096,0.018
2360,11,V1,14,0.756,0.163,0.12,0.027
2361,11,V1,15,0.943,0.119,0.086,0.014
2362,11,V1,16,0.526,0.419,0.391,0.176
2363,11,V2,0,0.854,0.245,0.217,0.06
2364,11,V2,1,0.905,0.145,0.114,0.021
2365,11,V2,2,0.907,0.162,0.127,0.026
2366,11,V2,3,0.901,0.191,0.147,0.036
2367,11,V2,4,0.988,0.04,0.031,0.002
2368,11,V2,5,0.977,0.061,0.046,0.004
2369,11,V2,6,-0.014,0.609,0.553,0.37
2370,11,V2,7,0.92,0.113,0.089,0.013
2371,11,V2,8,0.558,0.405,0.35,0.164
2372,11,V2,9,0.976,0.088,0.071,0.008
2373,11,V2,10,0.816,0.178,0.152,0.032
2374,11,V2,11,0.791,0.248,0.203,0.061
2375,11,V2,12,0.706,0.334,0.303,0.111
2376,11,V2,13,0.947,0.093,0.07,0.009
2377,11,V2,14,0.919,0.154,0.133,0.024
2378,11,V2,15,0.936,0.11,0.077,0.012
2379,11,V2,16,0.483,0.553,0.541,0.306
2380,11,V3,0,0.825,0.193,0.14,0.037
2381,11,V3,1,0.888,0.12,0.081,0.014
2382,11,V3,2,0.669,0.558,0.545,0.312
2383,11,V3,3,0.675,0.374,0.336,0.14
2384,11,V3,4,0.949,0.117,0.1,0.014
2385,11,V3,5,0.897,0.148,0.097,0.022
2386,11,V3,6,0.71,0.427,0.393,0.182
2387,11,V3,7,0.796,0.247,0.185,0.061
2388,11,V3,8,0.029,0.73,0.65,0.533
2389,11,V3,9,0.983,0.084,0.068,0.007
2390,11,V3,10,0.831,0.416,0.407,0.173
2391,11,V3,11,0.822,0.212,0.166,0.045
2392,11,V3,12,0.61,0.411,0.396,0.169
2393,11,V3,13,0.681,0.395,0.332,0.156
2394,11,V3,14,0.824,0.337,0.317,0.114
2395,11,V3,15,0.938,0.286,0.273,0.082
2396,11,V3,16,0.776,0.331,0.312,0.11
2397,11,V4,0,0.785,0.229,0.181,0.052
2398,11,V4,1,0.86,0.128,0.095,0.016
2399,11,V4,2,0.982,0.043,0.03,0.002
2400,11,V4,3,0.872,0.13,0.089,0.017
2401,11,V4,4,0.953,0.097,0.079,0.009
2402,11,V4,5,0.852,0.125,0.097,0.016
2403,11,V4,6,0.911,0.289,0.263,0.083
2404,11,V4,7,0.854,0.196,0.154,0.039
2405,11,V4,8,0.268,0.28,0.165,0.078
2406,11,V4,9,0.881,0.16,0.123,0.026
2407,11,V4,10,0.939,0.123,0.103,0.015
2408,11,V4,11,0.731,0.35,0.298,0.122
2409,11,V4,12,0.75,0.238,0.216,0.056
2410,11,V4,13,0.951,0.084,0.065,0.007
2411,11,V4,14,0.72,0.41,0.387,0.168
2412,11,V4,15,0.953,0.086,0.064,0.007
2413,11,V4,16,0.992,0.032,0.024,0.001
2414,11,V5,0,0.858,0.164,0.128,0.027
2415,11,V5,1,0.874,0.117,0.077,0.014
2416,11,V5,2,0.829,0.127,0.073,0.016
2417,11,V5,3,0.959,0.192,0.174,0.037
2418,11,V5,4,0.911,0.172,0.148,0.03
2419,11,V5,5,0.604,0.339,0.304,0.115
2420,11,V5,6,0.91,0.235,0.198,0.055
2421,11,V5,7,0.801,0.183,0.118,0.034
2422,11,V5,8,0.832,0.233,0.196,0.054
2423,11,V5,9,0.2,0.472,0.419,0.223
2424,11,V5,10,0.993,0.033,0.023,0.001
2425,11,V5,11,0.552,0.47,0.403,0.221
2426,11,V5,12,0.884,0.226,0.204,0.051
2427,11,V5,13,0.971,0.06,0.045,0.004
2428,11,V5,14,0.83,0.144,0.109,0.021
2429,11,V5,15,0.93,0.102,0.074,0.01
2430,11,V5,16,0.924,0.142,0.12,0.02
2431,11,V6,0,0.722,0.39,0.377,0.152
2432,11,V6,1,0.876,0.124,0.081,0.015
2433,11,V6,2,0.775,0.148,0.078,0.022
2434,11,V6,3,0.946,0.133,0.114,0.018
2435,11,V6,4,0.922,0.224,0.205,0.05
2436,11,V6,5,0.197,0.592,0.571,0.35
2437,11,V6,6,0.91,0.192,0.154,0.037
2438,11,V6,7,0.541,0.26,0.152,0.068
2439,11,V6,8,0.884,0.201,0.173,0.04
2440,11,V6,9,0.838,0.2,0.152,0.04
2441,11,V6,10,0.988,0.14,0.134,0.02
2442,11,V6,11,0.531,0.433,0.355,0.188
2443,11,V6,12,0.84,0.158,0.109,0.025
2444,11,V6,13,0.956,0.076,0.064,0.006
2445,11,V6,14,0.858,0.133,0.102,0.018
2446,11,V6,15,0.824,0.173,0.137,0.03
2447,11,V6,16,0.868,0.188,0.155,0.035
2448,12,I,0,0.898,0.27,0.253,0.073
2449,12,I,1,0.938,0.217,0.202,0.047
2450,12,I,2,0.738,0.393,0.357,0.155
2451,12,I,3,0.829,0.253,0.217,0.064
2452,12,I,4,0.632,0.549,0.525,0.301
2453,12,I,5,0.859,0.149,0.116,0.022
2454,12,I,6,0.956,0.16,0.144,0.026
2455,12,I,7,0.866,0.148,0.096,0.022
2456,12,I,8,0.988,0.053,0.04,0.003
2457,12,I,9,0.964,0.066,0.039,0.004
2458,12,I,10,0.911,0.195,0.174,0.038
2459,12,I,11,0.889,0.192,0.161,0.037
2460,12,I,12,0.366,0.269,0.194,0.072
2461,12,I,13,0.987,0.079,0.056,0.006
2462,12,I,14,0.307,0.28,0.211,0.078
2463,12,I,15,0.449,0.321,0.277,0.103
2464,12,I,16,0.385,0.475,0.4,0.226
2465,12,II,0,0.987,0.051,0.038,0.003
2466,12,II,1,0.9,0.354,0.337,0.125
2467,12,II,2,0.64,0.282,0.234,0.079
2468,12,II,3,0.786,0.174,0.137,0.03
2469,12,II,4,0.781,0.134,0.106,0.018
2470,12,II,5,0.991,0.048,0.034,0.002
2471,12,II,6,0.994,0.04,0.03,0.002
2472,12,II,7,0.761,0.187,0.152,0.035
2473,12,II,8,0.662,0.396,0.356,0.157
2474,12,II,9,0.703,0.467,0.447,0.218
2475,12,II,10,0.991,0.043,0.034,0.002
2476,12,II,11,0.948,0.081,0.06,0.007
2477,12,II,12,0.879,0.087,0.064,0.008
2478,12,II,13,0.764,0.37,0.344,0.137
2479,12,II,14,0.707,0.167,0.138,0.028
2480,12,II,15,0.589,0.372,0.301,0.138
2481,12,II,16,0.879,0.12,0.093,0.014
2482,12,III,0,0.825,0.194,0.157,0.037
2483,12,III,1,0.735,0.356,0.315,0.126
2484,12,III,2,0.123,0.538,0.5,0.289
2485,12,III,3,0.294,0.319,0.257,0.102
2486,12,III,4,0.444,0.237,0.178,0.056
2487,12,III,5,0.717,0.315,0.253,0.099
2488,12,III,6,0.786,0.286,0.243,0.082
2489,12,III,7,0.484,0.376,0.231,0.141
2490,12,III,8,0.45,0.382,0.33,0.146
2491,12,III,9,0.581,0.38,0.358,0.145
2492,12,III,10,0.562,0.385,0.363,0.148
2493,12,III,11,0.975,0.05,0.037,0.003
2494,12,III,12,0.926,0.173,0.16,0.03
2495,12,III,13,-0.252,0.456,0.366,0.208
2496,12,III,14,-0.193,0.183,0.096,0.033
2497,12,III,15,0.967,0.085,0.061,0.007
2498,12,III,16,0.936,0.154,0.135,0.024
2499,12,AVR,0,0.974,0.094,0.076,0.009
2500,12,AVR,1,0.88,0.24,0.219,0.058
2501,12,AVR,2,0.758,0.222,0.167,0.049
2502,12,AVR,3,0.849,0.165,0.131,0.027
2503,12,AVR,4,0.97,0.056,0.041,0.003
2504,12,AVR,5,0.961,0.116,0.097,0.014
2505,12,AVR,6,0.989,0.045,0.034,0.002
2506,12,AVR,7,0.93,0.091,0.073,0.008
2507,12,AVR,8,0.937,0.13,0.108,0.017
2508,12,AVR,9,0.874,0.15,0.105,0.023
2509,12,AVR,10,0.98,0.117,0.108,0.014
2510,12,AVR,11,0.939,0.115,0.094,0.013
2511,12,AVR,12,0.371,0.189,0.137,0.036
2512,12,AVR,13,0.941,0.262,0.239,0.068
2513,12,AVR,14,0.71,0.208,0.178,0.043
2514,12,AVR,15,0.493,0.391,0.321,0.153
2515,12,AVR,16,0.394,0.307,0.247,0.094
2516,12,AVL,0,0.246,0.752,0.73,0.565
2517,12,AVL,1,0.967,0.068,0.05,0.005
2518,12,AVL,2,0.507,0.449,0.415,0.201
2519,12,AVL,3,0.647,0.324,0.286,0.105
2520,12,AVL,4,0.358,0.417,0.373,0.174
2521,12,AVL,5,0.582,0.193,0.153,0.037
2522,12,AVL,6,0.618,0.219,0.171,0.048
2523,12,AVL,7,0.674,0.287,0.181,0.082
2524,12,AVL,8,0.9,0.139,0.117,0.019
2525,12,AVL,9,0.783,0.192,0.168,0.037
2526,12,AVL,10,0.072,0.485,0.435,0.235
2527,12,AVL,11,0.808,0.229,0.182,0.052
2528,12,AVL,12,0.839,0.223,0.199,0.05
2529,12,AVL,13,0.957,0.13,0.099,0.017
2530,12,AVL,14,-0.249,0.247,0.142,0.061
2531,12,AVL,15,0.659,0.249,0.208,0.062
2532,12,AVL,16,0.772,0.348,0.313,0.121
2533,12,AVF,0,0.99,0.042,0.033,0.002
2534,12,AVF,1,0.753,0.336,0.301,0.113
2535,12,AVF,2,0.478,0.343,0.301,0.118
2536,12,AVF,3,0.631,0.202,0.149,0.041
2537,12,AVF,4,0.632,0.157,0.122,0.025
2538,12,AVF,5,0.938,0.159,0.13,0.025
2539,12,AVF,6,0.979,0.083,0.06,0.007
2540,12,AVF,7,0.44,0.314,0.202,0.099
2541,12,AVF,8,0.102,0.476,0.416,0.226
2542,12,AVF,9,0.623,0.538,0.522,0.29
2543,12,AVF,10,0.967,0.092,0.078,0.009
2544,12,AVF,11,0.965,0.065,0.048,0.004
2545,12,AVF,12,0.97,0.054,0.042,0.003
2546,12,AVF,13,-0.153,0.501,0.463,0.251
2547,12,AVF,14,0.613,0.162,0.124,0.026
2548,12,AVF,15,0.781,0.253,0.207,0.064
2549,12,AVF,16,0.986,0.047,0.033,0.002
2550,12,V1,0,0.901,0.125,0.097,0.016
2551,12,V1,1,0.54,0.296,0.247,0.088
2552,12,V1,2,0.325,0.294,0.228,0.087
2553,12,V1,3,0.805,0.225,0.19,0.051
2554,12,V1,4,0.726,0.21,0.14,0.044
2555,12,V1,5,0.757,0.256,0.195,0.065
2556,12,V1,6,0.967,0.109,0.086,0.012
2557,12,V1,7,0.858,0.223,0.19,0.05
2558,12,V1,8,0.878,0.137,0.11,0.019
2559,12,V1,9,0.823,0.196,0.157,0.039
2560,12,V1,10,0.962,0.067,0.049,0.005
2561,12,V1,11,0.858,0.209,0.185,0.044
2562,12,V1,12,-0.234,0.294,0.238,0.087
2563,12,V1,13,0.181,0.349,0.276,0.122
2564,12,V1,14,0.962,0.05,0.034,0.003
2565,12,V1,15,0.702,0.342,0.288,0.117
2566,12,V1,16,0.444,0.323,0.261,0.104
2567,12,V2,0,0.194,0.749,0.731,0.561
2568,12,V2,1,0.451,0.504,0.471,0.254
2569,12,V2,2,0.984,0.048,0.036,0.002
2570,12,V2,3,0.005,0.376,0.317,0.141
2571,12,V2,4,0.792,0.194,0.132,0.038
2572,12,V2,5,0.88,0.118,0.081,0.014
2573,12,V2,6,0.938,0.178,0.159,0.032
2574,12,V2,7,0.885,0.161,0.129,0.026
2575,12,V2,8,0.616,0.289,0.256,0.083
2576,12,V2,9,0.941,0.149,0.131,0.022
2577,12,V2,10,0.861,0.239,0.223,0.057
2578,12,V2,11,0.847,0.224,0.209,0.05
2579,12,V2,12,-0.456,0.293,0.15,0.086
2580,12,V2,13,0.567,0.234,0.178,0.055
2581,12,V2,14,0.804,0.158,0.126,0.025
2582,12,V2,15,0.486,0.443,0.381,0.196
2583,12,V2,16,0.499,0.289,0.256,0.083
2584,12,V3,0,-0.067,0.876,0.849,0.767
2585,12,V3,1,0.323,0.278,0.233,0.078
2586,12,V3,2,0.885,0.157,0.118,0.025
2587,12,V3,3,0.045,0.401,0.331,0.161
2588,12,V3,4,0.65,0.273,0.229,0.074
2589,12,V3,5,0.9,0.109,0.083,0.012
2590,12,V3,6,0.671,0.383,0.361,0.146
2591,12,V3,7,0.805,0.186,0.147,0.035
2592,12,V3,8,0.684,0.21,0.166,0.044
2593,12,V3,9,0.782,0.15,0.085,0.023
2594,12,V3,10,0.722,0.43,0.42,0.185
2595,12,V3,11,0.738,0.284,0.256,0.081
2596,12,V3,12,0.145,0.485,0.462,0.235
2597,12,V3,13,0.001,0.603,0.557,0.364
2598,12,V3,14,0.611,0.446,0.428,0.199
2599,12,V3,15,0.343,0.406,0.336,0.165
2600,12,V3,16,0.42,0.321,0.281,0.103
2601,12,V4,0,0.697,0.442,0.421,0.196
2602,12,V4,1,0.488,0.354,0.288,0.126
2603,12,V4,2,0.72,0.196,0.136,0.038
2604,12,V4,3,0.953,0.067,0.051,0.005
2605,12,V4,4,0.573,0.186,0.146,0.035
2606,12,V4,5,0.869,0.148,0.116,0.022
2607,12,V4,6,0.918,0.195,0.177,0.038
2608,12,V4,7,0.881,0.102,0.078,0.01
2609,12,V4,8,0.529,0.209,0.176,0.044
2610,12,V4,9,0.713,0.282,0.25,0.08
2611,12,V4,10,0.859,0.127,0.103,0.016
2612,12,V4,11,0.943,0.198,0.186,0.039
2613,12,V4,12,0.729,0.274,0.257,0.075
2614,12,V4,13,0.31,0.493,0.433,0.243
2615,12,V4,14,0.719,0.438,0.425,0.192
2616,12,V4,15,0.321,0.22,0.168,0.048
2617,12,V4,16,0.603,0.189,0.152,0.036
2618,12,V5,0,0.872,0.203,0.17,0.041
2619,12,V5,1,0.816,0.223,0.177,0.05
2620,12,V5,2,0.752,0.175,0.124,0.031
2621,12,V5,3,0.803,0.137,0.112,0.019
2622,12,V5,4,0.884,0.077,0.062,0.006
2623,12,V5,5,0.75,0.171,0.135,0.029
2624,12,V5,6,0.949,0.16,0.143,0.025
2625,12,V5,7,0.835,0.133,0.095,0.018
2626,12,V5,8,0.762,0.156,0.131,0.024
2627,12,V5,9,0.73,0.19,0.143,0.036
2628,12,V5,10,0.741,0.44,0.421,0.194
2629,12,V5,11,0.947,0.101,0.078,0.01
2630,12,V5,12,0.736,0.147,0.12,0.022
2631,12,V5,13,0.497,0.339,0.243,0.115
2632,12,V5,14,0.85,0.262,0.241,0.069
2633,12,V5,15,0.698,0.314,0.268,0.098
2634,12,V5,16,0.543,0.23,0.169,0.053
2635,12,V6,0,0.831,0.172,0.146,0.03
2636,12,V6,1,0.862,0.214,0.183,0.046
2637,12,V6,2,0.791,0.191,0.15,0.037
2638,12,V6,3,0.882,0.185,0.164,0.034
2639,12,V6,4,0.882,0.116,0.099,0.014
2640,12,V6,5,0.653,0.215,0.163,0.046
2641,12,V6,6,0.547,0.343,0.278,0.118
2642,12,V6,7,0.834,0.123,0.097,0.015
2643,12,V6,8,0.633,0.209,0.178,0.044
2644,12,V6,9,0.672,0.252,0.201,0.063
2645,12,V6,10,0.303,0.331,0.21,0.109
2646,12,V6,11,0.933,0.102,0.085,0.01
2647,12,V6,12,0.484,0.162,0.104,0.026
2648,12,V6,13,0.514,0.256,0.196,0.066
2649,12,V6,14,0.853,0.135,0.106,0.018
2650,12,V6,15,0.38,0.343,0.254,0.118
2651,12,V6,16,0.328,0.288,0.208,0.083
2652,13,I,0,0.996,0.037,0.032,0.001
2653,13,I,1,0.919,0.196,0.173,0.039
2654,13,I,2,0.881,0.139,0.109,0.019
2655,13,I,3,0.625,0.214,0.182,0.046
2656,13,I,4,0.491,0.382,0.339,0.146
2657,13,I,5,0.933,0.155,0.13,0.024
2658,13,I,6,0.169,0.424,0.355,0.18
2659,13,I,7,0.975,0.066,0.049,0.004
2660,13,I,8,0.819,0.201,0.158,0.04
2661,13,I,9,0.9,0.141,0.102,0.02
2662,13,I,10,0.66,0.258,0.176,0.067
2663,13,I,11,0.629,0.328,0.286,0.108
2664,13,I,12,0.944,0.081,0.058,0.007
2665,13,I,13,0.629,0.26,0.224,0.068
2666,13,I,14,0.52,0.354,0.305,0.125
2667,13,I,15,0.919,0.144,0.107,0.021
2668,13,I,16,0.817,0.358,0.319,0.128
2669,13,II,0,0.861,0.14,0.105,0.02
2670,13,II,1,0.58,0.433,0.376,0.188
2671,13,II,2,0.84,0.192,0.145,0.037
2672,13,II,3,0.643,0.382,0.349,0.146
2673,13,II,4,0.933,0.149,0.125,0.022
2674,13,II,5,0.907,0.133,0.105,0.018
2675,13,II,6,0.848,0.214,0.169,0.046
2676,13,II,7,0.559,0.295,0.235,0.087
2677,13,II,8,0.828,0.185,0.156,0.034
2678,13,II,9,0.847,0.184,0.136,0.034
2679,13,II,10,0.821,0.195,0.15,0.038
2680,13,II,11,0.986,0.057,0.041,0.003
2681,13,II,12,0.94,0.105,0.086,0.011
2682,13,II,13,0.799,0.18,0.139,0.032
2683,13,II,14,0.859,0.22,0.18,0.048
2684,13,II,15,0.854,0.192,0.149,0.037
2685,13,II,16,0.706,0.253,0.209,0.064
2686,13,III,0,0.639,0.313,0.27,0.098
2687,13,III,1,0.395,0.474,0.402,0.225
2688,13,III,2,0.691,0.191,0.136,0.036
2689,13,III,3,0.283,0.391,0.342,0.153
2690,13,III,4,-0.013,0.505,0.427,0.255
2691,13,III,5,0.96,0.061,0.044,0.004
2692,13,III,6,0.833,0.24,0.201,0.058
2693,13,III,7,0.278,0.557,0.508,0.31
2694,13,III,8,0.097,0.266,0.202,0.071
2695,13,III,9,0.755,0.189,0.113,0.036
2696,13,III,10,0.416,0.411,0.327,0.169
2697,13,III,11,0.254,0.308,0.256,0.095
2698,13,III,12,0.776,0.244,0.171,0.059
2699,13,III,13,0.149,0.426,0.342,0.181
2700,13,III,14,-0.243,0.413,0.349,0.171
2701,13,III,15,0.276,0.593,0.486,0.352
2702,13,III,16,0.538,0.357,0.306,0.127
2703,13,AVR,0,0.953,0.122,0.108,0.015
2704,13,AVR,1,0.712,0.353,0.305,0.125
2705,13,AVR,2,0.933,0.115,0.089,0.013
2706,13,AVR,3,0.813,0.28,0.241,0.078
2707,13,AVR,4,0.821,0.186,0.165,0.035
2708,13,AVR,5,0.912,0.113,0.081,0.013
2709,13,AVR,6,0.473,0.35,0.276,0.123
2710,13,AVR,7,0.855,0.151,0.12,0.023
2711,13,AVR,8,0.952,0.122,0.109,0.015
2712,13,AVR,9,0.879,0.199,0.155,0.04
2713,13,AVR,10,0.861,0.179,0.131,0.032
2714,13,AVR,11,0.878,0.328,0.3,0.107
2715,13,AVR,12,0.947,0.109,0.09,0.012
2716,13,AVR,13,0.857,0.144,0.114,0.021
2717,13,AVR,14,0.768,0.203,0.153,0.041
2718,13,AVR,15,0.929,0.112,0.082,0.013
2719,13,AVR,16,0.822,0.222,0.179,0.049
2720,13,AVL,0,0.945,0.11,0.088,0.012
2721,13,AVL,1,0.437,0.329,0.254,0.108
2722,13,AVL,2,0.793,0.166,0.125,0.028
2723,13,AVL,3,0.435,0.548,0.445,0.3
2724,13,AVL,4,-0.126,0.569,0.496,0.323
2725,13,AVL,5,0.957,0.092,0.077,0.008
2726,13,AVL,6,0.74,0.295,0.25,0.087
2727,13,AVL,7,0.816,0.203,0.153,0.041
2728,13,AVL,8,0.467,0.251,0.157,0.063
2729,13,AVL,9,0.787,0.209,0.145,0.044
2730,13,AVL,10,0.166,0.427,0.367,0.182
2731,13,AVL,11,0.175,0.322,0.266,0.104
2732,13,AVL,12,0.867,0.139,0.09,0.019
2733,13,AVL,13,-0.091,0.427,0.342,0.183
2734,13,AVL,14,0.083,0.356,0.287,0.126
2735,13,AVL,15,0.688,0.367,0.29,0.135
2736,13,AVL,16,0.522,0.303,0.246,0.092
2737,13,AVF,0,0.614,0.199,0.149,0.04
2738,13,AVF,1,0.509,0.433,0.361,0.187
2739,13,AVF,2,0.652,0.282,0.212,0.08
2740,13,AVF,3,0.282,0.452,0.386,0.204
2741,13,AVF,4,0.656,0.236,0.188,0.056
2742,13,AVF,5,0.923,0.106,0.078,0.011
2743,13,AVF,6,0.86,0.194,0.149,0.038
2744,13,AVF,7,0.106,0.489,0.425,0.239
2745,13,AVF,8,0.497,0.257,0.225,0.066
2746,13,AVF,9,0.844,0.162,0.101,0.026
2747,13,AVF,10,0.701,0.255,0.198,0.065
2748,13,AVF,11,0.784,0.245,0.212,0.06
2749,13,AVF,12,0.921,0.117,0.092,0.014
2750,13,AVF,13,0.634,0.28,0.223,0.078
2751,13,AVF,14,0.55,0.274,0.204,0.075
2752,13,AVF,15,0.37,0.295,0.234,0.087
2753,13,AVF,16,0.615,0.284,0.241,0.081
2754,13,V1,0,0.73,0.213,0.179,0.045
2755,13,V1,1,0.825,0.15,0.113,0.022
2756,13,V1,2,0.566,0.348,0.269,0.121
2757,13,V1,3,0.982,0.06,0.044,0.004
2758,13,V1,4,0.709,0.192,0.132,0.037
2759,13,V1,5,0.649,0.258,0.229,0.067
2760,13,V1,6,0.034,0.32,0.236,0.102
2761,13,V1,7,0.877,0.194,0.142,0.038
2762,13,V1,8,0.95,0.122,0.101,0.015
2763,13,V1,9,0.68,0.475,0.391,0.226
2764,13,V1,10,0.86,0.148,0.1,0.022
2765,13,V1,11,0.126,0.676,0.562,0.457
2766,13,V1,12,0.884,0.151,0.116,0.023
2767,13,V1,13,0.902,0.129,0.107,0.017
2768,13,V1,14,0.37,0.528,0.435,0.279
2769,13,V1,15,0.935,0.156,0.132,0.024
2770,13,V1,16,0.931,0.122,0.09,0.015
2771,13,V2,0,0.294,0.445,0.385,0.198
2772,13,V2,1,0.918,0.115,0.079,0.013
2773,13,V2,2,0.936,0.099,0.078,0.01
2774,13,V2,3,0.906,0.132,0.078,0.017
2775,13,V2,4,0.73,0.189,0.129,0.036
2776,13,V2,5,0.89,0.155,0.135,0.024
2777,13,V2,6,0.27,0.408,0.345,0.166
2778,13,V2,7,0.688,0.254,0.187,0.065
2779,13,V2,8,0.709,0.327,0.307,0.107
2780,13,V2,9,0.733,0.255,0.197,0.065
2781,13,V2,10,0.889,0.178,0.142,0.032
2782,13,V2,11,0.874,0.17,0.14,0.029
2783,13,V2,12,0.715,0.282,0.234,0.079
2784,13,V2,13,0.963,0.078,0.059,0.006
2785,13,V2,14,0.76,0.307,0.276,0.095
2786,13,V2,15,0.79,0.26,0.223,0.067
2787,13,V2,16,0.633,0.376,0.341,0.142
2788,13,V3,0,0.518,0.339,0.293,0.115
2789,13,V3,1,0.882,0.218,0.195,0.047
2790,13,V3,2,0.899,0.123,0.097,0.015
2791,13,V3,3,0.834,0.14,0.106,0.02
2792,13,V3,4,0.699,0.22,0.162,0.048
2793,13,V3,5,0.935,0.118,0.1,0.014
2794,13,V3,6,0.537,0.417,0.362,0.174
2795,13,V3,7,0.726,0.23,0.162,0.053
2796,13,V3,8,0.531,0.372,0.352,0.138
2797,13,V3,9,0.858,0.13,0.104,0.017
2798,13,V3,10,0.79,0.295,0.255,0.087
2799,13,V3,11,0.845,0.307,0.284,0.094
2800,13,V3,12,0.803,0.238,0.195,0.057
2801,13,V3,13,0.981,0.055,0.043,0.003
2802,13,V3,14,0.345,0.529,0.498,0.279
2803,13,V3,15,0.489,0.29,0.225,0.084
2804,13,V3,16,0.6,0.379,0.346,0.143
2805,13,V4,0,0.907,0.112,0.089,0.012
2806,13,V4,1,0.934,0.119,0.088,0.014
2807,13,V4,2,0.828,0.178,0.139,0.032
2808,13,V4,3,0.733,0.155,0.102,0.024
2809,13,V4,4,0.725,0.307,0.276,0.094
2810,13,V4,5,0.917,0.147,0.116,0.022
2811,13,V4,6,0.727,0.359,0.31,0.129
2812,13,V4,7,0.746,0.173,0.128,0.03
2813,13,V4,8,0.985,0.044,0.032,0.002
2814,13,V4,9,0.886,0.114,0.082,0.013
2815,13,V4,10,0.778,0.159,0.116,0.025
2816,13,V4,11,0.885,0.173,0.146,0.03
2817,13,V4,12,0.908,0.102,0.076,0.011
2818,13,V4,13,0.924,0.134,0.109,0.018
2819,13,V4,14,-0.38,0.781,0.746,0.609
2820,13,V4,15,0.723,0.305,0.252,0.093
2821,13,V4,16,0.771,0.302,0.269,0.091
2822,13,V5,0,0.965,0.076,0.061,0.006
2823,13,V5,1,0.991,0.038,0.028,0.001
2824,13,V5,2,0.85,0.179,0.143,0.032
2825,13,V5,3,0.849,0.202,0.171,0.041
2826,13,V5,4,0.757,0.197,0.135,0.039
2827,13,V5,5,0.862,0.146,0.11,0.021
2828,13,V5,6,0.889,0.157,0.118,0.025
2829,13,V5,7,0.927,0.086,0.067,0.007
2830,13,V5,8,0.864,0.2,0.17,0.04
2831,13,V5,9,0.777,0.242,0.179,0.059
2832,13,V5,10,0.831,0.172,0.124,0.03
2833,13,V5,11,0.887,0.181,0.152,0.033
2834,13,V5,12,0.902,0.106,0.085,0.011
2835,13,V5,13,0.891,0.168,0.144,0.028
2836,13,V5,14,0.657,0.418,0.374,0.175
2837,13,V5,15,0.84,0.205,0.162,0.042
2838,13,V5,16,0.839,0.223,0.183,0.05
2839,13,V6,0,0.88,0.13,0.105,0.017
2840,13,V6,1,0.967,0.071,0.055,0.005
2841,13,V6,2,0.792,0.199,0.139,0.039
2842,13,V6,3,0.812,0.29,0.263,0.084
2843,13,V6,4,0.773,0.174,0.103,0.03
2844,13,V6,5,0.898,0.129,0.098,0.017
2845,13,V6,6,0.954,0.1,0.068,0.01
2846,13,V6,7,0.795,0.14,0.104,0.02
2847,13,V6,8,0.916,0.134,0.102,0.018
2848,13,V6,9,0.79,0.229,0.16,0.052
2849,13,V6,10,0.864,0.172,0.124,0.029
2850,13,V6,11,0.537,0.311,0.238,0.097
2851,13,V6,12,0.946,0.094,0.074,0.009
2852,13,V6,13,0.857,0.148,0.118,0.022
2853,13,V6,14,0.99,0.044,0.032,0.002
2854,13,V6,15,0.794,0.192,0.146,0.037
2855,13,V6,16,0.816,0.195,0.146,0.038
2856,14,I,0,0.988,0.039,0.028,0.001
2857,14,I,1,0.682,0.301,0.235,0.09
2858,14,I,2,0.945,0.095,0.072,0.009
2859,14,I,3,0.625,0.43,0.411,0.185
2860,14,I,4,0.922,0.187,0.158,0.035
2861,14,I,5,0.67,0.248,0.185,0.062
2862,14,I,6,0.93,0.108,0.086,0.012
2863,14,I,7,0.938,0.244,0.228,0.06
2864,14,I,8,0.929,0.194,0.179,0.037
2865,14,I,9,0.965,0.06,0.044,0.004
2866,14,I,10,0.88,0.296,0.276,0.087
2867,14,I,11,0.431,0.693,0.656,0.48
2868,14,I,12,0.939,0.18,0.167,0.032
2869,14,I,13,0.926,0.134,0.108,0.018
2870,14,I,14,0.947,0.099,0.072,0.01
2871,14,I,15,0.897,0.13,0.099,0.017
2872,14,I,16,0.967,0.114,0.102,0.013
2873,14,II,0,0.91,0.213,0.199,0.046
2874,14,II,1,0.518,0.245,0.187,0.06
2875,14,II,2,0.686,0.228,0.17,0.052
2876,14,II,3,0.801,0.37,0.356,0.137
2877,14,II,4,0.878,0.149,0.115,0.022
2878,14,II,5,0.432,0.396,0.313,0.157
2879,14,II,6,0.962,0.124,0.108,0.015
2880,14,II,7,0.955,0.176,0.154,0.031
2881,14,II,8,0.765,0.37,0.341,0.137
2882,14,II,9,0.956,0.088,0.069,0.008
2883,14,II,10,0.97,0.087,0.065,0.008
2884,14,II,11,0.669,0.588,0.56,0.345
2885,14,II,12,0.815,0.282,0.254,0.079
2886,14,II,13,0.948,0.099,0.077,0.01
2887,14,II,14,0.884,0.177,0.125,0.031
2888,14,II,15,0.968,0.08,0.058,0.006
2889,14,II,16,0.858,0.208,0.159,0.043
2890,14,III,0,0.498,0.203,0.153,0.041
2891,14,III,1,0.61,0.258,0.184,0.067
2892,14,III,2,0.69,0.408,0.294,0.166
2893,14,III,3,0.974,0.043,0.03,0.002
2894,14,III,4,0.074,0.222,0.173,0.049
2895,14,III,5,0.499,0.321,0.244,0.103
2896,14,III,6,-0.009,0.458,0.403,0.209
2897,14,III,7,0.487,0.211,0.154,0.045
2898,14,III,8,0.903,0.134,0.112,0.018
2899,14,III,9,0.314,0.342,0.283,0.117
2900,14,III,10,0.845,0.184,0.168,0.034
2901,14,III,11,0.968,0.084,0.064,0.007
2902,14,III,12,0.759,0.217,0.191,0.047
2903,14,III,13,0.813,0.151,0.115,0.023
2904,14,III,14,0.283,0.639,0.459,0.409
2905,14,III,15,0.903,0.145,0.101,0.021
2906,14,III,16,0.719,0.416,0.396,0.173
2907,14,AVR,0,0.969,0.07,0.051,0.005
2908,14,AVR,1,0.713,0.377,0.339,0.142
2909,14,AVR,2,0.822,0.151,0.11,0.023
2910,14,AVR,3,0.72,0.351,0.331,0.123
2911,14,AVR,4,0.957,0.088,0.064,0.008
2912,14,AVR,5,0.572,0.374,0.3,0.14
2913,14,AVR,6,0.957,0.095,0.069,0.009
2914,14,AVR,7,0.972,0.133,0.117,0.018
2915,14,AVR,8,0.896,0.277,0.257,0.077
2916,14,AVR,9,0.977,0.054,0.041,0.003
2917,14,AVR,10,0.932,0.196,0.178,0.038
2918,14,AVR,11,0.336,0.861,0.821,0.741
2919,14,AVR,12,0.88,0.177,0.148,0.031
2920,14,AVR,13,0.95,0.102,0.079,0.01
2921,14,AVR,14,0.958,0.092,0.07,0.008
2922,14,AVR,15,0.956,0.083,0.064,0.007
2923,14,AVR,16,0.96,0.077,0.06,0.006
2924,14,AVL,0,0.939,0.108,0.089,0.012
2925,14,AVL,1,0.588,0.274,0.183,0.075
2926,14,AVL,2,0.822,0.189,0.127,0.036
2927,14,AVL,3,0.74,0.144,0.093,0.021
2928,14,AVL,4,0.514,0.239,0.204,0.057
2929,14,AVL,5,0.575,0.268,0.209,0.072
2930,14,AVL,6,0.783,0.213,0.157,0.045
2931,14,AVL,7,0.711,0.277,0.243,0.076
2932,14,AVL,8,0.984,0.043,0.031,0.002
2933,14,AVL,9,0.869,0.206,0.183,0.042
2934,14,AVL,10,0.737,0.23,0.206,0.053
2935,14,AVL,11,0.861,0.198,0.173,0.039
2936,14,AVL,12,0.979,0.048,0.034,0.002
2937,14,AVL,13,0.874,0.129,0.092,0.017
2938,14,AVL,14,0.601,0.326,0.226,0.106
2939,14,AVL,15,0.744,0.254,0.192,0.065
2940,14,AVL,16,0.896,0.271,0.259,0.074
2941,14,AVF,0,0.653,0.412,0.393,0.17
2942,14,AVF,1,0.521,0.256,0.196,0.066
2943,14,AVF,2,0.566,0.371,0.255,0.138
2944,14,AVF,3,0.919,0.225,0.216,0.051
2945,14,AVF,4,0.697,0.167,0.114,0.028
2946,14,AVF,5,0.44,0.409,0.314,0.167
2947,14,AVF,6,0.896,0.285,0.263,0.081
2948,14,AVF,7,0.857,0.197,0.158,0.039
2949,14,AVF,8,0.697,0.368,0.332,0.135
2950,14,AVF,9,0.835,0.23,0.196,0.053
2951,14,AVF,10,0.981,0.043,0.028,0.002
2952,14,AVF,11,0.925,0.288,0.266,0.083
2953,14,AVF,12,0.734,0.337,0.312,0.114
2954,14,AVF,13,0.909,0.132,0.103,0.018
2955,14,AVF,14,0.526,0.414,0.286,0.172
2956,14,AVF,15,0.961,0.081,0.058,0.007
2957,14,AVF,16,0.416,0.354,0.283,0.126
2958,14,V1,0,0.931,0.09,0.067,0.008
2959,14,V1,1,0.651,0.335,0.247,0.112
2960,14,V1,2,0.697,0.215,0.169,0.046
2961,14,V1,3,0.759,0.21,0.165,0.044
2962,14,V1,4,0.756,0.205,0.174,0.042
2963,14,V1,5,0.405,0.376,0.296,0.141
2964,14,V1,6,0.826,0.204,0.175,0.042
2965,14,V1,7,0.8,0.137,0.089,0.019
2966,14,V1,8,0.851,0.235,0.196,0.055
2967,14,V1,9,0.892,0.163,0.14,0.027
2968,14,V1,10,0.854,0.141,0.101,0.02
2969,14,V1,11,-0.157,1.049,0.991,1.1
2970,14,V1,12,0.926,0.097,0.061,0.009
2971,14,V1,13,0.875,0.132,0.095,0.018
2972,14,V1,14,0.941,0.097,0.079,0.009
2973,14,V1,15,0.94,0.131,0.103,0.017
2974,14,V1,16,0.817,0.16,0.133,0.025
2975,14,V2,0,0.848,0.179,0.162,0.032
2976,14,V2,1,0.139,0.389,0.276,0.151
2977,14,V2,2,0.774,0.238,0.186,0.056
2978,14,V2,3,0.634,0.445,0.413,0.198
2979,14,V2,4,0.954,0.085,0.065,0.007
2980,14,V2,5,0.05,0.525,0.406,0.275
2981,14,V2,6,0.989,0.057,0.043,0.003
2982,14,V2,7,0.423,0.679,0.662,0.462
2983,14,V2,8,0.852,0.261,0.245,0.068
2984,14,V2,9,0.836,0.265,0.255,0.07
2985,14,V2,10,0.766,0.141,0.088,0.02
2986,14,V2,11,-0.538,0.92,0.871,0.846
2987,14,V2,12,0.95,0.117,0.087,0.014
2988,14,V2,13,0.933,0.105,0.078,0.011
2989,14,V2,14,0.872,0.169,0.132,0.029
2990,14,V2,15,0.964,0.077,0.055,0.006
2991,14,V2,16,0.685,0.234,0.2,0.055
2992,14,V3,0,0.861,0.265,0.253,0.07
2993,14,V3,1,-0.249,0.577,0.47,0.333
2994,14,V3,2,0.903,0.125,0.085,0.016
2995,14,V3,3,-0.458,0.72,0.691,0.518
2996,14,V3,4,0.984,0.046,0.035,0.002
2997,14,V3,5,0.264,0.371,0.286,0.138
2998,14,V3,6,0.887,0.158,0.105,0.025
2999,14,V3,7,0.665,0.618,0.608,0.382
3000,14,V3,8,0.869,0.182,0.162,0.033
3001,14,V3,9,0.727,0.373,0.362,0.139
3002,14,V3,10,0.552,0.287,0.253,0.083
3003,14,V3,11,-0.463,0.761,0.708,0.58
3004,14,V3,12,0.926,0.147,0.097,0.022
3005,14,V3,13,0.892,0.127,0.092,0.016
3006,14,V3,14,0.653,0.404,0.302,0.163
3007,14,V3,15,0.878,0.195,0.166,0.038
3008,14,V3,16,0.911,0.157,0.14,0.025
3009,14,V4,0,0.912,0.266,0.256,0.071
3010,14,V4,1,0.092,0.371,0.307,0.138
3011,14,V4,2,0.91,0.154,0.128,0.024
3012,14,V4,3,0.068,0.446,0.403,0.199
3013,14,V4,4,0.976,0.102,0.091,0.01
3014,14,V4,5,0.501,0.364,0.289,0.132
3015,14,V4,6,0.941,0.095,0.061,0.009
3016,14,V4,7,0.955,0.259,0.251,0.067
3017,14,V4,8,0.843,0.213,0.186,0.045
3018,14,V4,9,0.888,0.199,0.182,0.039
3019,14,V4,10,0.702,0.154,0.098,0.024
3020,14,V4,11,0.556,0.223,0.165,0.05
3021,14,V4,12,0.764,0.468,0.45,0.219
3022,14,V4,13,0.94,0.083,0.062,0.007
3023,14,V4,14,0.825,0.236,0.179,0.056
3024,14,V4,15,0.904,0.139,0.102,0.019
3025,14,V4,16,0.987,0.035,0.025,0.001
3026,14,V5,0,0.924,0.332,0.324,0.11
3027,14,V5,1,0.657,0.227,0.168,0.051
3028,14,V5,2,0.922,0.101,0.082,0.01
3029,14,V5,3,0.518,0.351,0.321,0.123
3030,14,V5,4,0.95,0.1,0.077,0.01
3031,14,V5,5,0.329,0.339,0.269,0.115
3032,14,V5,6,0.941,0.104,0.078,0.011
3033,14,V5,7,0.988,0.086,0.075,0.007
3034,14,V5,8,0.904,0.292,0.276,0.085
3035,14,V5,9,0.956,0.078,0.062,0.006
3036,14,V5,10,0.869,0.264,0.243,0.07
3037,14,V5,11,0.668,0.489,0.469,0.239
3038,14,V5,12,0.81,0.336,0.319,0.113
3039,14,V5,13,0.951,0.079,0.052,0.006
3040,14,V5,14,0.919,0.141,0.109,0.02
3041,14,V5,15,0.953,0.081,0.056,0.007
3042,14,V5,16,0.927,0.094,0.074,0.009
3043,14,V6,0,0.923,0.2,0.186,0.04
3044,14,V6,1,0.656,0.211,0.172,0.045
3045,14,V6,2,0.918,0.109,0.084,0.012
3046,14,V6,3,0.717,0.31,0.289,0.096
3047,14,V6,4,0.908,0.113,0.085,0.013
3048,14,V6,5,0.654,0.229,0.177,0.053
3049,14,V6,6,0.955,0.13,0.113,0.017
3050,14,V6,7,0.992,0.051,0.041,0.003
3051,14,V6,8,0.926,0.32,0.31,0.102
3052,14,V6,9,0.974,0.074,0.06,0.006
3053,14,V6,10,0.942,0.255,0.244,0.065
3054,14,V6,11,0.429,0.73,0.692,0.532
3055,14,V6,12,0.853,0.203,0.178,0.041
3056,14,V6,13,0.973,0.082,0.063,0.007
3057,14,V6,14,0.962,0.113,0.092,0.013
3058,14,V6,15,0.974,0.075,0.059,0.006
3059,14,V6,16,0.697,0.194,0.155,0.037
3060,15,I,0,0.606,0.291,0.213,0.085
3061,15,I,1,0.956,0.099,0.081,0.01
3062,15,I,2,0.966,0.123,0.107,0.015
3063,15,I,3,0.765,0.307,0.277,0.094
3064,15,I,4,0.901,0.231,0.211,0.053
3065,15,I,5,0.842,0.155,0.113,0.024
3066,15,I,6,0.69,0.219,0.164,0.048
3067,15,I,7,0.737,0.248,0.193,0.061
3068,15,I,8,0.945,0.115,0.085,0.013
3069,15,I,9,0.014,0.393,0.303,0.154
3070,15,I,10,0.992,0.038,0.028,0.001
3071,15,I,11,0.976,0.063,0.043,0.004
3072,15,I,12,0.731,0.369,0.331,0.136
3073,15,I,13,0.771,0.188,0.137,0.035
3074,15,I,14,0.374,0.58,0.536,0.336
3075,15,I,15,0.85,0.16,0.119,0.026
3076,15,I,16,0.978,0.077,0.063,0.006
3077,15,II,0,0.927,0.125,0.091,0.016
3078,15,II,1,0.762,0.199,0.167,0.04
3079,15,II,2,0.948,0.262,0.253,0.069
3080,15,II,3,0.805,0.288,0.256,0.083
3081,15,II,4,0.885,0.155,0.121,0.024
3082,15,II,5,0.99,0.047,0.035,0.002
3083,15,II,6,0.858,0.134,0.094,0.018
3084,15,II,7,0.762,0.279,0.222,0.078
3085,15,II,8,0.686,0.301,0.199,0.091
3086,15,II,9,0.355,0.367,0.292,0.134
3087,15,II,10,0.865,0.357,0.346,0.127
3088,15,II,11,0.456,0.597,0.56,0.357
3089,15,II,12,0.911,0.222,0.201,0.049
3090,15,II,13,0.758,0.147,0.105,0.022
3091,15,II,14,0.884,0.235,0.212,0.055
3092,15,II,15,0.804,0.189,0.154,0.036
3093,15,II,16,0.932,0.187,0.167,0.035
3094,15,III,0,0.632,0.332,0.233,0.11
3095,15,III,1,-0.168,0.442,0.357,0.195
3096,15,III,2,-0.109,0.616,0.598,0.38
3097,15,III,3,0.431,0.699,0.685,0.489
3098,15,III,4,0.199,0.742,0.714,0.551
3099,15,III,5,0.656,0.323,0.293,0.105
3100,15,III,6,0.457,0.37,0.297,0.137
3101,15,III,7,0.603,0.324,0.255,0.105
3102,15,III,8,0.666,0.324,0.205,0.105
3103,15,III,9,0.792,0.185,0.131,0.034
3104,15,III,10,-0.443,0.864,0.852,0.747
3105,15,III,11,-0.214,0.905,0.844,0.818
3106,15,III,12,0.417,0.369,0.259,0.136
3107,15,III,13,-0.281,0.336,0.285,0.113
3108,15,III,14,0.738,0.479,0.457,0.23
3109,15,III,15,0.445,0.285,0.213,0.081
3110,15,III,16,0.014,0.355,0.281,0.126
3111,15,AVR,0,0.851,0.162,0.124,0.026
3112,15,AVR,1,0.89,0.13,0.107,0.017
3113,15,AVR,2,0.981,0.142,0.131,0.02
3114,15,AVR,3,0.79,0.272,0.237,0.074
3115,15,AVR,4,0.945,0.139,0.12,0.019
3116,15,AVR,5,0.968,0.1,0.083,0.01
3117,15,AVR,6,0.906,0.102,0.068,0.01
3118,15,AVR,7,0.789,0.194,0.15,0.038
3119,15,AVR,8,0.864,0.164,0.115,0.027
3120,15,AVR,9,0.026,0.603,0.496,0.364
3121,15,AVR,10,0.96,0.164,0.154,0.027
3122,15,AVR,11,0.796,0.372,0.348,0.138
3123,15,AVR,12,0.827,0.327,0.297,0.107
3124,15,AVR,13,0.765,0.156,0.115,0.024
3125,15,AVR,14,0.677,0.449,0.413,0.201
3126,15,AVR,15,0.845,0.237,0.211,0.056
3127,15,AVR,16,0.974,0.069,0.054,0.005
3128,15,AVL,0,0.41,0.382,0.274,0.146
3129,15,AVL,1,0.752,0.304,0.266,0.093
3130,15,AVL,2,0.854,0.22,0.19,0.048
3131,15,AVL,3,0.708,0.468,0.454,0.219
3132,15,AVL,4,0.715,0.468,0.446,0.219
3133,15,AVL,5,0.532,0.251,0.192,0.063
3134,15,AVL,6,0.028,0.702,0.618,0.492
3135,15,AVL,7,0.603,0.292,0.228,0.085
3136,15,AVL,8,0.856,0.157,0.103,0.025
3137,15,AVL,9,0.642,0.3,0.237,0.09
3138,15,AVL,10,0.223,0.531,0.51,0.282
3139,15,AVL,11,0.796,0.429,0.404,0.184
3140,15,AVL,12,0.545,0.376,0.319,0.141
3141,15,AVL,13,-0.066,0.293,0.186,0.086
3142,15,AVL,14,0.122,0.671,0.597,0.45
3143,15,AVL,15,0.668,0.231,0.172,0.053
3144,15,AVL,16,0.868,0.274,0.246,0.075
3145,15,AVF,0,0.87,0.151,0.108,0.023
3146,15,AVF,1,0.433,0.349,0.295,0.122
3147,15,AVF,2,0.746,0.503,0.488,0.253
3148,15,AVF,3,0.352,0.408,0.355,0.167
3149,15,AVF,4,0.284,0.482,0.403,0.232
3150,15,AVF,5,0.936,0.138,0.117,0.019
3151,15,AVF,6,0.722,0.216,0.161,0.046
3152,15,AVF,7,0.676,0.251,0.186,0.063
3153,15,AVF,8,0.59,0.411,0.272,0.169
3154,15,AVF,9,0.659,0.229,0.177,0.052
3155,15,AVF,10,0.616,0.613,0.604,0.375
3156,15,AVF,11,-0.319,0.838,0.784,0.703
3157,15,AVF,12,0.985,0.046,0.033,0.002
3158,15,AVF,13,0.66,0.221,0.18,0.049
3159,15,AVF,14,0.985,0.045,0.03,0.002
3160,15,AVF,15,0.652,0.21,0.158,0.044
3161,15,AVF,16,0.788,0.39,0.362,0.152
3162,15,V1,0,0.914,0.11,0.085,0.012
3163,15,V1,1,0.579,0.251,0.202,0.063
3164,15,V1,2,0.732,0.274,0.238,0.075
3165,15,V1,3,0.976,0.063,0.044,0.004
3166,15,V1,4,0.97,0.187,0.175,0.035
3167,15,V1,5,0.971,0.099,0.088,0.01
3168,15,V1,6,0.847,0.173,0.14,0.03
3169,15,V1,7,0.715,0.225,0.189,0.051
3170,15,V1,8,0.963,0.081,0.064,0.007
3171,15,V1,9,0.218,0.382,0.288,0.146
3172,15,V1,10,0.869,0.14,0.084,0.02
3173,15,V1,11,0.491,0.339,0.315,0.115
3174,15,V1,12,0.445,0.306,0.182,0.094
3175,15,V1,13,0.749,0.242,0.196,0.059
3176,15,V1,14,0.707,0.223,0.162,0.05
3177,15,V1,15,0.763,0.28,0.235,0.078
3178,15,V1,16,0.46,0.42,0.369,0.176
3179,15,V2,0,0.898,0.123,0.097,0.015
3180,15,V2,1,0.693,0.212,0.172,0.045
3181,15,V2,2,0.633,0.336,0.3,0.113
3182,15,V2,3,0.764,0.264,0.222,0.07
3183,15,V2,4,0.918,0.189,0.167,0.036
3184,15,V2,5,0.899,0.113,0.068,0.013
3185,15,V2,6,0.646,0.327,0.273,0.107
3186,15,V2,7,0.743,0.215,0.163,0.046
3187,15,V2,8,0.889,0.165,0.135,0.027
3188,15,V2,9,0.528,0.264,0.189,0.07
3189,15,V2,10,0.813,0.407,0.374,0.166
3190,15,V2,11,0.678,0.329,0.307,0.108
3191,15,V2,12,0.734,0.234,0.16,0.055
3192,15,V2,13,0.449,0.238,0.196,0.057
3193,15,V2,14,0.907,0.296,0.278,0.088
3194,15,V2,15,0.786,0.256,0.209,0.066
3195,15,V2,16,0.457,0.471,0.442,0.222
3196,15,V3,0,0.853,0.154,0.116,0.024
3197,15,V3,1,0.985,0.045,0.033,0.002
3198,15,V3,2,0.61,0.393,0.373,0.154
3199,15,V3,3,0.914,0.307,0.286,0.094
3200,15,V3,4,0.802,0.195,0.159,0.038
3201,15,V3,5,0.903,0.351,0.339,0.123
3202,15,V3,6,0.307,0.601,0.539,0.361
3203,15,V3,7,0.719,0.372,0.34,0.139
3204,15,V3,8,0.927,0.111,0.084,0.012
3205,15,V3,9,0.436,0.251,0.167,0.063
3206,15,V3,10,0.679,0.679,0.654,0.461
3207,15,V3,11,0.541,0.448,0.431,0.201
3208,15,V3,12,0.892,0.215,0.191,0.046
3209,15,V3,13,0.969,0.044,0.033,0.002
3210,15,V3,14,0.826,0.456,0.447,0.208
3211,15,V3,15,0.838,0.275,0.238,0.076
3212,15,V3,16,0.791,0.176,0.136,0.031
3213,15,V4,0,0.914,0.168,0.134,0.028
3214,15,V4,1,0.485,0.487,0.439,0.237
3215,15,V4,2,0.839,0.198,0.178,0.039
3216,15,V4,3,0.745,0.377,0.367,0.142
3217,15,V4,4,0.849,0.178,0.142,0.032
3218,15,V4,5,0.871,0.121,0.09,0.015
3219,15,V4,6,0.653,0.296,0.221,0.087
3220,15,V4,7,0.745,0.261,0.189,0.068
3221,15,V4,8,0.831,0.208,0.155,0.043
3222,15,V4,9,0.469,0.33,0.258,0.109
3223,15,V4,10,0.886,0.348,0.324,0.121
3224,15,V4,11,0.468,0.344,0.321,0.118
3225,15,V4,12,0.906,0.223,0.207,0.05
3226,15,V4,13,0.781,0.212,0.172,0.045
3227,15,V4,14,0.921,0.089,0.076,0.008
3228,15,V4,15,0.832,0.178,0.155,0.032
3229,15,V4,16,0.947,0.141,0.12,0.02
3230,15,V5,0,0.958,0.088,0.068,0.008
3231,15,V5,1,0.838,0.171,0.132,0.029
3232,15,V5,2,0.972,0.125,0.111,0.016
3233,15,V5,3,0.599,0.233,0.196,0.054
3234,15,V5,4,0.907,0.121,0.094,0.015
3235,15,V5,5,0.908,0.14,0.118,0.02
3236,15,V5,6,0.522,0.269,0.191,0.073
3237,15,V5,7,0.772,0.181,0.136,0.033
3238,15,V5,8,0.876,0.196,0.151,0.038
3239,15,V5,9,0.264,0.316,0.253,0.1
3240,15,V5,10,0.846,0.301,0.286,0.09
3241,15,V5,11,0.675,0.239,0.214,0.057
3242,15,V5,12,0.913,0.182,0.159,0.033
3243,15,V5,13,0.754,0.245,0.198,0.06
3244,15,V5,14,0.847,0.245,0.22,0.06
3245,15,V5,15,0.548,0.316,0.272,0.1
3246,15,V5,16,0.986,0.048,0.033,0.002
3247,15,V6,0,0.928,0.106,0.076,0.011
3248,15,V6,1,0.575,0.31,0.234,0.096
3249,15,V6,2,0.99,0.038,0.027,0.001
3250,15,V6,3,0.872,0.269,0.252,0.072
3251,15,V6,4,0.93,0.123,0.097,0.015
3252,15,V6,5,0.918,0.108,0.086,0.012
3253,15,V6,6,0.643,0.22,0.171,0.048
3254,15,V6,7,0.702,0.285,0.236,0.081
3255,15,V6,8,0.901,0.163,0.121,0.027
3256,15,V6,9,0.36,0.298,0.252,0.089
3257,15,V6,10,0.885,0.158,0.117,0.025
3258,15,V6,11,0.42,0.374,0.301,0.14
3259,15,V6,12,0.921,0.138,0.117,0.019
3260,15,V6,13,0.781,0.239,0.197,0.057
3261,15,V6,14,0.827,0.305,0.286,0.093
3262,15,V6,15,0.637,0.348,0.295,0.121
3263,15,V6,16,0.781,0.23,0.199,0.053
3264,16,I,0,0.224,0.371,0.329,0.138
3265,16,I,1,0.852,0.143,0.104,0.02
3266,16,I,2,0.89,0.148,0.121,0.022
3267,16,I,3,0.748,0.352,0.318,0.124
3268,16,I,4,0.095,0.405,0.344,0.164
3269,16,I,5,0.777,0.387,0.356,0.15
3270,16,I,6,0.927,0.145,0.123,0.021
3271,16,I,7,0.681,0.28,0.234,0.078
3272,16,I,8,0.95,0.09,0.069,0.008
3273,16,I,9,0.991,0.036,0.028,0.001
3274,16,I,10,0.885,0.144,0.113,0.021
3275,16,I,11,0.927,0.142,0.117,0.02
3276,16,I,12,0.872,0.166,0.116,0.027
3277,16,I,13,0.863,0.323,0.293,0.104
3278,16,I,14,0.868,0.157,0.113,0.025
3279,16,I,15,0.921,0.112,0.078,0.012
3280,16,I,16,0.963,0.129,0.109,0.017
3281,16,II,0,0.549,0.235,0.189,0.055
3282,16,II,1,0.923,0.136,0.109,0.018
3283,16,II,2,0.972,0.069,0.051,0.005
3284,16,II,3,0.614,0.319,0.237,0.102
3285,16,II,4,0.88,0.163,0.136,0.027
3286,16,II,5,-0.158,0.961,0.936,0.923
3287,16,II,6,0.88,0.22,0.199,0.048
3288,16,II,7,0.821,0.206,0.162,0.042
3289,16,II,8,0.621,0.513,0.495,0.263
3290,16,II,9,0.717,0.243,0.166,0.059
3291,16,II,10,0.86,0.191,0.158,0.037
3292,16,II,11,0.991,0.042,0.032,0.002
3293,16,II,12,0.932,0.109,0.077,0.012
3294,16,II,13,0.797,0.441,0.408,0.195
3295,16,II,14,-0.34,0.477,0.423,0.227
3296,16,II,15,0.851,0.168,0.096,0.028
3297,16,II,16,0.867,0.231,0.199,0.053
3298,16,III,0,0.073,0.436,0.359,0.19
3299,16,III,1,0.699,0.224,0.177,0.05
3300,16,III,2,0.764,0.189,0.127,0.036
3301,16,III,3,0.512,0.296,0.241,0.087
3302,16,III,4,0.679,0.303,0.253,0.092
3303,16,III,5,0.921,0.232,0.209,0.054
3304,16,III,6,0.345,0.314,0.242,0.098
3305,16,III,7,0.575,0.28,0.221,0.079
